Distance (in),Time (s),X (in),Y (in),Velocity (in/s),Orientation (deg),Touch,Rotational Velocity (deg/s),Way X (in),Way Y (in),Way Velocity (in/s),Way Orientation (deg),Way Turn Radius (in),Touch this Point
0.0,0.0,74.0,17.0,12.0,0.0,0,0.0,74.0,17.0,12.0,0.0,3.0,0.0
0.9999999999999986,0.07936490297857007,74.8,17.6,13.200056006368866,0.0,0,0.0,90.0,29.0,36.0,0.0,20.0,0
1.9999999999999971,0.15182822996322717,75.6,18.200000000000003,14.400112012737733,0.0,0,0.0,200.0,29.0,96.0,0.0,10.0,0
2.9999999999999956,0.218494274342715,76.39999999999999,18.800000000000004,15.600168019106599,0.0,0,0.0,230.0,32.0,72.0,0.0,10.0,0.0
3.9999999999999942,0.2802219224911711,77.19999999999999,19.400000000000006,16.800224025475465,0.0,0,0.0,282.0,32.0,12.0,0.0,3.0,0.0
4.999999999999993,0.33769235443393275,77.99999999999999,20.000000000000007,18.000280031844333,0.0,0,-0.0,,,,,,
5.999999999999991,0.3914549049313096,78.79999999999998,20.60000000000001,19.200336038213198,0.0,0,-0.0,,,,,,
6.999999999999989,0.4419590268711511,79.59999999999998,21.20000000000001,20.400392044582063,0.0,0,-0.0,,,,,,
7.999999999999988,0.48957712201998377,80.39999999999998,21.80000000000001,21.600448050950927,0.0,0,-0.0,,,,,,
8.999999999999986,0.5346212011452025,81.19999999999997,22.400000000000013,22.80050405731979,0.0,0,-0.0,,,,,,
9.999999999999984,0.5773552722088179,81.99999999999997,23.000000000000014,24.000560063688656,0.0,0,-0.0,,,,,,
10.999999999999982,0.6180047069817447,82.79999999999997,23.600000000000016,25.20061607005752,0.0,0,0.0,,,,,,
11.99999999999998,0.656763429328413,83.59999999999997,24.200000000000017,26.400672076426385,0.0,0,0.0,,,,,,
12.999999999999979,0.6937995060616653,84.39999999999996,24.80000000000002,27.60072808279525,0.0,0,0.0,,,,,,
13.999691584551346,0.7292488444298908,85.20636506663902,25.390896474458117,28.80041397335253,0.0,0,0.0,,,,,,
14.999587421139827,0.7632584679253708,86.0398908488293,25.943188475532786,30.00034497779376,0.0,0,0.0,,,,,,
15.999483257728317,0.7959344709104235,86.89997803624632,26.453131329260604,31.200275982235,0.0,0,0.0,,,,,,
16.99937909431681,0.8273774974382961,87.78447685884629,26.919450444080358,32.400206986676245,0.0,0,0.0,,,,,,
17.99927493090531,0.8576772128996296,88.69117653021078,27.3409802650593,33.6001379911175,0.0,0,0.0,,,,,,
18.999170767493794,0.8869138447941283,89.61781077336143,27.716667187173467,34.80006899555873,0.0,0,0.0,,,,,,
19.99906660408229,0.914985742742771,90.56206348527216,28.045572188771544,36.43813787009721,0.0,0,0.0,,,,,,
20.99896244067078,0.9418234165291628,91.5215745259205,28.326873178639943,38.07620674463567,0.0,0,0.0,,,,,,
21.998858277259284,0.9675308245874443,92.49394561740853,28.559867050802723,39.71427561917415,0.0,0,0.0,,,,,,
22.998754113847774,0.9921993215642794,93.47674633840857,28.743971441920333,41.352344493712614,0.0,0,0.0,,,,,,
23.99864995043627,1.0159096166017012,94.46752019895088,28.878726186894703,42.99041336825109,0.0,0,0.0,,,,,,
24.998545787024756,1.0387333655114623,95.46379078036912,28.9637944690423,44.628482242789545,0.0,0,0.0,,,,,,
25.998545787024756,1.0607367266557512,96.46379078036912,28.9637944690423,46.26672176194519,0.0,0,0.0,,,,,,
26.998545787024756,1.081974533344263,97.46379078036912,28.9637944690423,47.90496128110084,0.0,0,0.0,,,,,,
27.998545787024756,1.1024982657295925,98.46379078036912,28.9637944690423,49.543200800256486,0.0,0,0.0,,,,,,
28.998545787024756,1.1223543801596638,99.46379078036912,28.9637944690423,51.18144031941213,0.0,0,0.0,,,,,,
29.998545787024756,1.14158494226286,100.46379078036912,28.9637944690423,52.81967983856778,0.0,0,0.0,,,,,,
30.998545787024756,1.1602281633545297,101.46379078036912,28.9637944690423,54.457919357723426,0.0,0,0.0,,,,,,
31.998545787024756,1.1783188573563907,102.46379078036912,28.9637944690423,56.09615887687907,0.0,0,0.0,,,,,,
32.99854578702475,1.1958888319564878,103.46379078036912,28.9637944690423,57.73439839603471,0.0,0,0.0,,,,,,
33.99854578702475,1.2129672250488104,104.46379078036912,28.9637944690423,59.37263791519036,0.0,0,0.0,,,,,,
34.99854578702475,1.2295807953885114,105.46379078036912,28.9637944690423,61.01087743434601,0.0,0,0.0,,,,,,
35.99854578702475,1.2457541747413132,106.46379078036912,28.9637944690423,62.649116953501654,0.0,0,0.0,,,,,,
36.99854578702475,1.261510087490563,107.46379078036912,28.9637944690423,64.28735647265731,0.0,0,0.0,,,,,,
37.99854578702475,1.2768695426150116,108.46379078036912,28.9637944690423,65.92559599181295,0.0,0,0.0,,,,,,
38.99854578702475,1.2918520021062585,109.46379078036912,28.9637944690423,67.5638355109686,0.0,0,0.0,,,,,,
39.99854578702475,1.3064755292124455,110.46379078036912,28.9637944690423,69.20207503012425,0.0,0,0.0,,,,,,
40.99854578702475,1.3207569193401538,111.46379078036912,28.9637944690423,70.8403145492799,0.0,0,0.0,,,,,,
41.99854578702475,1.3347118159932578,112.46379078036912,28.9637944690423,72.47855406843554,0.0,0,0.0,,,,,,
42.99854578702475,1.3483548137553207,113.46379078036912,28.9637944690423,74.11679358759119,0.0,0,0.0,,,,,,
43.99854578702475,1.3616995500150513,114.46379078036912,28.9637944690423,75.75503310674684,0.0,0,0.0,,,,,,
44.99854578702475,1.3747587868798155,115.46379078036912,28.9637944690423,77.39327262590248,0.0,0,0.0,,,,,,
45.99854578702475,1.387544484510331,116.46379078036912,28.9637944690423,79.03151214505813,0.0,0,-0.0,,,,,,
46.99854578702475,1.4000678669325801,117.46379078036912,28.9637944690423,80.66975166421378,0.0,0,-0.0,,,,,,
47.99854578702475,1.4123394812343588,118.46379078036912,28.9637944690423,82.30799118336942,0.0,0,-0.0,,,,,,
48.99854578702475,1.4243692509287047,119.46379078036912,28.9637944690423,83.94623070252507,0.0,0,-0.0,,,,,,
49.99854578702475,1.4361665241606143,120.46379078036912,28.9637944690423,85.58447022168072,0.0,0,-0.0,,,,,,
50.99854578702475,1.447740117343686,121.46379078036912,28.9637944690423,87.22270974083636,0.0,0,-0.0,,,,,,
51.99854578702475,1.459098354736916,122.46379078036912,28.9637944690423,88.86094925999201,0.0,0,-0.0,,,,,,
52.99854578702475,1.4702491044066313,123.46379078036912,28.9637944690423,90.49918877914766,0.0,0,-0.0,,,,,,
53.99854578702475,1.4811998109626547,124.46379078036912,28.9637944690423,92.1374282983033,0.0,0,-0.0,,,,,,
54.99854578702475,1.4919575254098105,125.46379078036912,28.9637944690423,93.77566781745895,0.0,0,-0.0,,,,,,
55.99854578702475,1.5025289324145106,126.46379078036912,28.9637944690423,95.4139073366146,0.0,0,-0.0,,,,,,
56.99854578702475,1.512977494004567,127.46379078036912,28.9637944690423,96.0,0.0,0,-0.0,,,,,,
57.99854578702475,1.5233941606712338,128.46379078036912,28.9637944690423,96.0,0.0,0,-0.0,,,,,,
58.99854578702475,1.5338108273379005,129.46379078036912,28.9637944690423,96.0,0.0,0,-0.0,,,,,,
59.99854578702475,1.5442274940045673,130.46379078036912,28.9637944690423,96.0,0.0,0,-0.0,,,,,,
60.99854578702475,1.554644160671234,131.46379078036912,28.9637944690423,96.0,0.0,0,-0.0,,,,,,
61.99854578702475,1.5650608273379008,132.46379078036912,28.9637944690423,96.0,0.0,0,-0.0,,,,,,
62.99854578702475,1.5754774940045675,133.46379078036912,28.9637944690423,96.0,0.0,0,-0.0,,,,,,
63.99854578702475,1.5858941606712342,134.46379078036912,28.9637944690423,96.0,0.0,0,-0.0,,,,,,
64.99854578702475,1.596310827337901,135.46379078036912,28.9637944690423,96.0,0.0,0,-0.0,,,,,,
65.99854578702475,1.6067274940045677,136.46379078036912,28.9637944690423,96.0,0.0,0,-0.0,,,,,,
66.99854578702475,1.6171441606712345,137.46379078036912,28.9637944690423,96.0,0.0,0,-0.0,,,,,,
67.99854578702475,1.6275608273379012,138.46379078036912,28.9637944690423,96.0,0.0,0,-0.0,,,,,,
68.99854578702475,1.637977494004568,139.46379078036912,28.9637944690423,96.0,0.0,0,-0.0,,,,,,
69.99854578702475,1.6483941606712347,140.46379078036912,28.9637944690423,96.0,0.0,0,-0.0,,,,,,
70.99854578702475,1.6588108273379014,141.46379078036912,28.9637944690423,96.0,0.0,0,-0.0,,,,,,
71.99854578702475,1.6692274940045682,142.46379078036912,28.9637944690423,96.0,0.0,0,-0.0,,,,,,
72.99854578702475,1.679644160671235,143.46379078036912,28.9637944690423,96.0,0.0,0,-0.0,,,,,,
73.99854578702475,1.6900608273379016,144.46379078036912,28.9637944690423,96.0,0.0,0,-0.0,,,,,,
74.99854578702475,1.7004774940045684,145.46379078036912,28.9637944690423,96.0,0.0,0,-0.0,,,,,,
75.99854578702475,1.7108941606712351,146.46379078036912,28.9637944690423,96.0,0.0,0,-0.0,,,,,,
76.99854578702475,1.7213108273379019,147.46379078036912,28.9637944690423,96.0,0.0,0,-0.0,,,,,,
77.99854578702475,1.7317274940045686,148.46379078036912,28.9637944690423,96.0,0.0,0,-0.0,,,,,,
78.99854578702475,1.7421441606712353,149.46379078036912,28.9637944690423,96.0,0.0,0,-0.0,,,,,,
79.99854578702475,1.752560827337902,150.46379078036912,28.9637944690423,96.0,0.0,0,-0.0,,,,,,
80.99854578702475,1.7629774940045688,151.46379078036912,28.9637944690423,96.0,0.0,0,-0.0,,,,,,
81.99854578702475,1.7733941606712356,152.46379078036912,28.9637944690423,96.0,0.0,0,-0.0,,,,,,
82.99854578702475,1.7838108273379023,153.46379078036912,28.9637944690423,96.0,0.0,0,-0.0,,,,,,
83.99854578702475,1.794227494004569,154.46379078036912,28.9637944690423,96.0,0.0,0,0.0,,,,,,
84.99854578702475,1.8046441606712358,155.46379078036912,28.9637944690423,96.0,0.0,0,0.0,,,,,,
85.99854578702475,1.8150608273379025,156.46379078036912,28.9637944690423,96.0,0.0,0,0.0,,,,,,
86.99854578702475,1.8254774940045693,157.46379078036912,28.9637944690423,96.0,0.0,0,0.0,,,,,,
87.99854578702475,1.835894160671236,158.46379078036912,28.9637944690423,96.0,0.0,0,0.0,,,,,,
88.99854578702475,1.8463108273379027,159.46379078036912,28.9637944690423,96.0,0.0,0,0.0,,,,,,
89.99854578702475,1.8567274940045695,160.46379078036912,28.9637944690423,96.0,0.0,0,0.0,,,,,,
90.99854578702475,1.8671441606712362,161.46379078036912,28.9637944690423,96.0,0.0,0,0.0,,,,,,
91.99854578702475,1.877560827337903,162.46379078036912,28.9637944690423,96.0,0.0,0,0.0,,,,,,
92.99854578702475,1.8879774940045697,163.46379078036912,28.9637944690423,96.0,0.0,0,0.0,,,,,,
93.99854578702475,1.8983941606712365,164.46379078036912,28.9637944690423,96.0,0.0,0,0.0,,,,,,
94.99854578702475,1.9088108273379032,165.46379078036912,28.9637944690423,96.0,0.0,0,0.0,,,,,,
95.99854578702475,1.91922749400457,166.46379078036912,28.9637944690423,96.0,0.0,0,0.0,,,,,,
96.99854578702475,1.9296441606712367,167.46379078036912,28.9637944690423,96.0,0.0,0,0.0,,,,,,
97.99854578702475,1.9400608273379034,168.46379078036912,28.9637944690423,96.0,0.0,0,0.0,,,,,,
98.99854578702475,1.9504774940045702,169.46379078036912,28.9637944690423,96.0,0.0,0,0.0,,,,,,
99.99854578702475,1.960894160671237,170.46379078036912,28.9637944690423,96.0,0.0,0,0.0,,,,,,
100.99854578702475,1.9713108273379036,171.46379078036912,28.9637944690423,96.0,0.0,0,0.0,,,,,,
101.99854578702475,1.9817274940045704,172.46379078036912,28.9637944690423,96.0,0.0,0,0.0,,,,,,
102.99854578702475,1.9921441606712371,173.46379078036912,28.9637944690423,96.0,0.0,0,0.0,,,,,,
103.99854578702475,2.002560827337904,174.46379078036912,28.9637944690423,96.0,0.0,0,0.0,,,,,,
104.99854578702475,2.0129774940045704,175.46379078036912,28.9637944690423,96.0,0.0,0,0.0,,,,,,
105.99854578702475,2.023394160671237,176.46379078036912,28.9637944690423,96.0,0.0,0,0.0,,,,,,
106.99854578702475,2.0338108273379034,177.46379078036912,28.9637944690423,96.0,0.0,0,0.0,,,,,,
107.99854578702475,2.04422749400457,178.46379078036912,28.9637944690423,96.0,0.0,0,0.0,,,,,,
108.99854578702475,2.0546441606712365,179.46379078036912,28.9637944690423,96.0,0.0,0,0.0,,,,,,
109.99854578702475,2.065060827337903,180.46379078036912,28.9637944690423,96.0,0.0,0,0.0,,,,,,
110.99854578702475,2.0754774940045695,181.46379078036912,28.9637944690423,96.0,0.0,0,0.0,,,,,,
111.99854578702475,2.085894160671236,182.46379078036912,28.9637944690423,96.0,0.0,0,0.0,,,,,,
112.99854578702475,2.0963108273379025,183.46379078036912,28.9637944690423,96.0,0.0,0,0.0,,,,,,
113.99854578702475,2.106727494004569,184.46379078036912,28.9637944690423,96.0,0.0,0,0.0,,,,,,
114.99854578702475,2.1171441606712356,185.46379078036912,28.9637944690423,96.0,0.0,0,0.0,,,,,,
115.99854578702475,2.127560827337902,186.46379078036912,28.9637944690423,96.0,0.0,0,0.0,,,,,,
116.99854578702475,2.1379774940045686,187.46379078036912,28.9637944690423,96.0,0.0,0,0.0,,,,,,
117.99854578702475,2.148394160671235,188.46379078036912,28.9637944690423,96.0,0.0,0,0.0,,,,,,
118.99854578702475,2.1588108273379016,189.46379078036912,28.9637944690423,96.0,0.0,0,0.0,,,,,,
119.99854578702475,2.169227494004568,190.46379078036912,28.9637944690423,96.0,0.0,0,0.0,,,,,,
120.99854578702475,2.1796441606712347,191.46379078036912,28.9637944690423,96.0,0.0,0,0.0,,,,,,
121.99854578702475,2.190060827337901,192.46379078036912,28.9637944690423,96.0,0.0,0,0.0,,,,,,
122.99854578702475,2.2004774940045677,193.46379078036912,28.9637944690423,96.0,0.0,0,0.0,,,,,,
123.99854578702475,2.2108941606712342,194.46379078036912,28.9637944690423,96.0,0.0,0,0.0,,,,,,
124.99854578702475,2.2213108273379008,195.46379078036912,28.9637944690423,96.0,0.0,0,0.0,,,,,,
125.99854578702475,2.2317274940045673,196.46379078036912,28.9637944690423,96.0,0.0,0,0.0,,,,,,
126.99854578702475,2.242144160671234,197.46379078036912,28.9637944690423,96.0,0.0,0,0.0,,,,,,
127.99854578702475,2.2525608273379003,198.46379078036912,28.9637944690423,96.0,0.0,0,0.0,,,,,,
128.99854578702474,2.262977494004567,199.46379078036912,28.9637944690423,96.0,0.0,0,0.0,,,,,,
129.53597593847616,2.2685882264657478,200.0,29.0,95.57218960973252,0.0,0,0.0,,,,,,
130.53597593847616,2.2790952784344,200.99503719020998,29.099503719020998,94.77615985756452,0.0,0,0.0,,,,,,
131.53597593847616,2.289690951830992,201.99007438041997,29.199007438041995,93.98013010539653,0.0,0,0.0,,,,,,
132.53597593847616,2.300376754321667,202.98511157062995,29.298511157062993,93.18410035322853,0.0,0,0.0,,,,,,
133.53597593847616,2.3111542323762437,203.98014876083994,29.39801487608399,92.38807060106053,0.0,0,0.0,,,,,,
134.53597593847616,2.322024972611359,204.97518595104992,29.49751859510499,91.59204084889254,0.0,0,0.0,,,,,,
135.53597593847616,2.332990603192228,205.9702231412599,29.597022314125986,90.79601109672454,0.0,0,0.0,,,,,,
136.53597593847616,2.344052795296124,206.9652603314699,29.696526033146984,89.99998134455655,0.0,0,0.0,,,,,,
137.53597593847616,2.355213264640866,207.96029752167988,29.796029752167982,89.20395159238855,0.0,0,0.0,,,,,,
138.53597593847616,2.3664737730818115,208.95533471188986,29.89553347118898,88.40792184022055,0.0,0,0.0,,,,,,
139.53597593847616,2.3778361302810698,209.95037190209985,29.995037190209977,87.61189208805256,0.0,0,0.0,,,,,,
140.53597593847616,2.389302195452895,210.94540909230983,30.094540909230975,86.81586233588456,0.0,0,-0.0,,,,,,
141.53597593847616,2.4008738791894655,211.94044628251982,30.194044628251973,86.01983258371656,0.0,0,-0.0,,,,,,
142.53597593847616,2.4125531453715343,212.9354834727298,30.29354834727297,85.22380283154857,0.0,0,-0.0,,,,,,
143.53597593847616,2.4243420131687308,213.93052066293978,30.39305206629397,84.42777307938057,0.0,0,-0.0,,,,,,
144.53597593847616,2.4362425591346093,214.92555785314977,30.492555785314966,83.63174332721258,0.0,0,-0.0,,,,,,
145.53597593847616,2.4482569194018797,215.92059504335975,30.592059504335964,82.83571357504458,0.0,0,-0.0,,,,,,
146.53597593847616,2.4603872919836243,216.91563223356974,30.69156322335696,82.03968382287658,0.0,0,-0.0,,,,,,
147.53597593847616,2.472635939186705,217.91066942377972,30.79106694237796,81.24365407070859,0.0,0,-0.0,,,,,,
148.53597593847616,2.485005190143985,218.9057066139897,30.890570661398957,80.44762431854059,0.0,0,-0.0,,,,,,
149.53597593847616,2.497497443472452,219.9007438041997,30.990074380419955,79.6515945663726,0.0,0,0.0,,,,,,
150.53597593847616,2.510115170064839,220.89578099440968,31.089578099440953,78.8555648142046,0.0,0,0.0,,,,,,
151.53597593847616,2.5228609160228594,221.89081818461966,31.18908181846195,78.0595350620366,0.0,0,0.0,,,,,,
152.53597593847616,2.5357373057407737,222.88585537482965,31.28858553748295,77.2635053098686,0.0,0,0.0,,,,,,
153.53597593847616,2.5487470451486223,223.88089256503963,31.388089256503946,76.46747555770061,0.0,0,0.0,,,,,,
154.53597593847616,2.5618929251251537,224.87592975524962,31.487592975524944,75.67144580553261,0.0,0,0.0,,,,,,
155.53597593847616,2.575177825091216,225.8709669454596,31.58709669454594,74.87541605336462,0.0,0,0.0,,,,,,
156.53597593847616,2.5886047167951793,226.86600413566958,31.68660041356694,74.07938630119662,0.0,0,0.0,,,,,,
157.53597593847616,2.602176668302846,227.86104132587957,31.786104132587937,73.28335654902862,0.0,0,0.0,,,,,,
158.53597593847616,2.6158968482052365,228.85607851608955,31.885607851608935,72.48732679686063,0.0,0,0.0,,,,,,
159.53597593847616,2.6297388926553484,229.85111570629954,31.985111570629932,72.0,0.0,0,0.0,,,,,,
159.68560280183897,2.631819538090277,230.0,32.0,71.82735361919676,0.0,0,0.0,,,,,,
160.68560280183897,2.645854541000283,231.0,32.0,70.6735074653506,0.0,0,0.0,,,,,,
161.68560280183897,2.660120571345766,232.0,32.0,69.51966131150444,0.0,0,0.0,,,,,,
162.68560280183897,2.674625362214348,233.0,32.0,68.36581515765828,0.0,0,0.0,,,,,,
163.68560280183897,2.6893770415722145,234.0,32.0,67.21196900381211,0.0,0,0.0,,,,,,
164.68560280183897,2.7043841596148313,235.0,32.0,66.05812284996595,0.0,0,0.0,,,,,,
165.68560280183897,2.7196557185274046,236.0,32.0,64.9042766961198,0.0,0,0.0,,,,,,
166.68560280183897,2.735201204914421,237.0,32.0,63.75043054227364,0.0,0,0.0,,,,,,
167.68560280183897,2.751030625190768,238.0,32.0,62.59658438842749,0.0,0,0.0,,,,,,
168.68560280183897,2.7671545442650327,239.0,32.0,61.442738234581334,0.0,0,0.0,,,,,,
169.68560280183897,2.783584127889432,240.0,32.0,60.28889208073518,0.0,0,0.0,,,,,,
170.68560280183897,2.800331189101501,241.0,32.0,59.13504592688903,0.0,0,0.0,,,,,,
171.68560280183897,2.8174082392412765,242.0,32.0,57.981199773042874,0.0,0,0.0,,,,,,
172.68560280183897,2.834828544095803,243.0,32.0,56.82735361919672,0.0,0,0.0,,,,,,
173.68560280183897,2.8526061858020024,244.0,32.0,55.67350746535057,0.0,0,0.0,,,,,,
174.68560280183897,2.8707561312314698,245.0,32.0,54.519661311504414,0.0,0,0.0,,,,,,
175.68560280183897,2.889294307689092,246.0,32.0,53.36581515765826,0.0,0,0.0,,,,,,
176.68560280183897,2.9082376868846738,247.0,32.0,52.21196900381211,0.0,0,0.0,,,,,,
177.68560280183897,2.927604378286787,248.0,32.0,51.058122849965955,0.0,0,0.0,,,,,,
178.68560280183897,2.947413733145544,249.0,32.0,49.9042766961198,0.0,0,0.0,,,,,,
179.68560280183897,2.9676864606816675,250.0,32.0,48.75043054227365,0.0,0,0.0,,,,,,
180.68560280183897,2.9884447581902984,251.0,32.0,47.596584388427495,0.0,0,0.0,,,,,,
181.68560280183897,3.009712457108311,252.0,32.0,46.44273823458134,0.0,0,0.0,,,,,,
182.68560280183897,3.0315151874547057,253.0,32.0,45.28889208073519,0.0,0,0.0,,,,,,
183.68560280183897,3.0538805634889115,254.0,32.0,44.135045926889035,0.0,0,0.0,,,,,,
184.68560280183897,3.0768383939593487,255.0,32.0,42.98119977304288,0.0,0,0.0,,,,,,
185.68560280183897,3.10042092095695,256.0,32.0,41.82735361919673,0.0,0,0.0,,,,,,
186.68560280183897,3.1246630921744165,257.0,32.0,40.673507465350575,0.0,0,0.0,,,,,,
187.68560280183897,3.149602872339049,258.0,32.0,39.51966131150442,0.0,0,0.0,,,,,,
188.68560280183897,3.175281600783265,259.0,32.0,38.36581515765827,0.0,0,-0.0,,,,,,
189.68560280183897,3.201744403605415,260.0,32.0,37.211969003812115,0.0,0,-0.0,,,,,,
190.68560280183897,3.229040670737048,261.0,32.0,36.05812284996596,0.0,0,-0.0,,,,,,
191.68560280183897,3.25722461058115,262.0,32.0,34.90427669611981,0.0,0,-0.0,,,,,,
192.68560280183897,3.2863558978657244,263.0,32.0,33.750430542273655,0.0,0,-0.0,,,,,,
193.68560280183897,3.3165004341660986,264.0,32.0,32.5965843884275,0.0,0,-0.0,,,,,,
194.68560280183897,3.3477312454564325,265.0,32.0,31.44273823458135,0.0,0,-0.0,,,,,,
195.68560280183897,3.380129547425525,266.0,32.0,30.288892080735195,0.0,0,-0.0,,,,,,
196.68560280183897,3.413786017647061,267.0,32.0,29.135045926889042,0.0,0,-0.0,,,,,,
197.68560280183897,3.448802324750075,268.0,32.0,27.98119977304289,0.0,0,-0.0,,,,,,
198.68560280183897,3.4852929795149787,269.0,32.0,26.827353619196735,0.0,0,-0.0,,,,,,
199.68560280183897,3.5233875927972105,270.0,32.0,25.673507465350582,0.0,0,-0.0,,,,,,
