Distance (in),Time (s),X (in),Y (in),Velocity (in/s),Orientation (deg),Touch,Rotational Velocity (deg/s),Way X (in),Way Y (in),Way Velocity (in/s),Way Orientation (deg),Way Turn Radius (in),Touch this Point
0.0,0.0,83.0,184.00000000000003,12.0,0.0,0,0.0,83.0,184.00000000000003,12.0,0.0,3.0,0
0.9999999999999977,0.0728364949920315,83.99388373467362,184.11043152607488,15.458762262225834,0.0,0,0.0,110.0,187.00000000000003,120.0,0.0,20.0,0
1.9999999999999953,0.13101613528916484,84.98776746934723,184.22086305214972,18.917524524451668,0.0,0,0.0,190.0,187.00000000000003,96.0,315.0,120.0,0
2.999999999999993,0.1794495430201914,85.98165120402085,184.33129457822457,22.376286786677504,0.0,0,0.0,256.49,262.51,84.0,270.0,100.0,0
3.9999999999999907,0.22093356260472985,86.97553493869447,184.44172610429942,25.83504904890334,0.0,0,0.0,270.0,295.69,12.0,270.0,20.0,0
4.9999999999999885,0.2572122011787636,87.96941867336808,184.55215763037427,29.293811311129176,0.0,0,-0.0,,,,,,
5.999999999999986,0.2894461500820482,88.9633024080417,184.66258915644912,32.75257357335501,0.0,0,-0.0,,,,,,
6.999999999999983,0.3184468261913531,89.95718614271532,184.77302068252396,36.21133583558084,0.0,0,-0.0,,,,,,
7.9999999999999805,0.34480373454598034,90.95106987738893,184.8834522085988,39.67009809780667,0.0,0,-0.0,,,,,,
8.999999999999979,0.36895862776264304,91.94495361206255,184.99388373467366,43.12886036003251,0.0,0,-0.0,,,,,,
9.999999999999977,0.39125107541013693,92.93883734673616,185.1043152607485,46.58762262225835,0.0,0,-0.0,,,,,,
10.999999999999975,0.4119477230148681,93.93272108140978,185.21474678682335,50.04638488448419,0.0,0,-0.0,,,,,,
11.999999999999973,0.43126177815987077,94.9266048160834,185.3251783128982,53.50514714671003,0.0,0,0.0,,,,,,
12.999999999999972,0.44936639552837837,95.92048855075701,185.43560983897305,56.96390940893587,0.0,0,0.0,,,,,,
13.99999999999997,0.46640411808233295,96.91437228543063,185.5460413650479,60.42267167116171,0.0,0,0.0,,,,,,
14.999999999999968,0.4824936912325765,97.90825602010425,185.65647289112275,63.88143393338755,0.0,0,0.0,,,,,,
15.999999999999966,0.4977350809183611,98.90213975477786,185.7669044171976,67.34019619561339,0.0,0,0.0,,,,,,
16.999999999999964,0.512213235247721,99.89602348945148,185.87733594327244,70.79895845783922,0.0,0,0.0,,,,,,
17.99999999999996,0.5260009492043262,100.8899072241251,185.9877674693473,74.25772072006505,0.0,0,0.0,,,,,,
18.999999999999957,0.5391610773792171,101.88379095879871,186.09819899542214,77.71648298229088,0.0,0,0.0,,,,,,
19.999999999999954,0.5517482650341032,102.87767469347233,186.20863052149699,81.17524524451672,0.0,0,0.0,,,,,,
20.99999999999995,0.5638103180668149,103.87155842814595,186.31906204757183,84.63400750674255,0.0,0,0.0,,,,,,
21.999999999999947,0.5753892986484276,104.86544216281956,186.42949357364668,88.09276976896838,0.0,0,0.0,,,,,,
22.999999999999943,0.5865224099130688,105.85932589749318,186.53992509972153,91.55153203119421,0.0,0,0.0,,,,,,
23.99999999999994,0.597242716630693,106.8532096321668,186.65035662579638,95.01029429342005,0.0,0,0.0,,,,,,
24.999999999999936,0.6075797370477203,107.84709336684041,186.76078815187122,98.46905655564588,0.0,0,0.0,,,,,,
25.999999999999932,0.6175599325785748,108.84097710151403,186.87121967794607,101.92781881787171,0.0,0,0.0,,,,,,
26.99999999999993,0.6272071157987674,109.83486083618764,186.98165120402092,105.38658108009754,0.0,0,0.0,,,,,,
27.16615541441224,0.6287838951338064,110.0,187.00000000000003,105.36632608963099,359.9695175606584,0,-3.206248752021344,,,,,,
28.16615541441224,0.6382800866444218,111.0,187.00000000000003,105.24442220501672,359.908446574826,0,-6.416213431810937,,,,,,
29.16615541441224,0.64778728390177,112.0,187.00000000000003,105.12251832040245,359.8166804833997,0,-9.629902662617921,,,,,,
30.16615541441224,0.6573055124459857,113.0,187.00000000000003,105.00061443578818,359.69411227293375,0,-12.84732509774319,,,,,,
31.16615541441224,0.6668347979062103,114.0,187.00000000000003,104.87871055117391,359.5406344732348,0,-16.06848942067918,,,,,,
32.166155414412245,0.6763751660010057,115.0,187.00000000000003,104.75680666655964,359.3561391549424,0,-19.29340434525055,,,,,,
33.166155414412245,0.6859266425387711,116.0,187.00000000000003,104.63490278194537,359.14051792709364,0,-22.5220786157556,,,,,,
34.166155414412245,0.6954892534181619,117.0,187.00000000000003,104.5129988973311,358.8936619346723,0,-25.75452100710847,,,,,,
35.166155414412245,0.7050630246285107,118.0,187.00000000000003,104.39109501271683,358.61546185614213,0,-28.99074032498228,,,,,,
36.166155414412245,0.7146479822502512,119.0,187.00000000000003,104.26919112810256,358.3058079009645,0,-32.23074540595309,,,,,,
37.166155414412245,0.7242441524553448,120.0,187.00000000000003,104.1472872434883,357.9645898071002,0,-35.47454511764461,,,,,,
38.166155414412245,0.7338515615077091,121.0,187.00000000000003,104.02538335887402,357.59169683849484,0,-38.72214835887387,,,,,,
39.166155414412245,0.7434702357636495,122.0,187.00000000000003,103.90347947425975,357.18701778254825,0,-41.973564059797624,,,,,,
40.166155414412245,0.7531002016722922,123.0,187.00000000000003,103.78157558964548,356.7504409475676,0,-45.22880118205978,,,,,,
41.166155414412245,0.7627414857760217,124.0,187.00000000000003,103.65967170503122,356.281854160204,0,-48.48786871893954,,,,,,
42.166155414412245,0.7723941147109191,125.0,187.00000000000003,103.53776782041695,355.7811447628726,0,-51.7507756955005,,,,,,
43.166155414412245,0.7820581152072037,126.0,187.00000000000003,103.41586393580268,355.24819961115605,0,-55.01753116874058,,,,,,
44.166155414412245,0.7917335140896771,127.0,187.00000000000003,103.2939600511884,354.68290507119104,0,-58.288144227742904,,,,,,
45.166155414412245,0.80142033827817,128.0,187.00000000000003,103.17205616657414,354.0851470170378,0,-61.562623993827444,,,,,,
46.166155414412245,0.8111186147879919,129.0,187.00000000000003,103.05015228195987,353.4548108280329,0,-64.84097962070383,,,,,,
47.166155414412245,0.8208283707303825,130.0,187.00000000000003,102.9282483973456,352.79178138612457,0,-68.12322029462464,,,,,,
48.166155414412245,0.830549633312967,131.0,187.00000000000003,102.80634451273133,352.09594307319054,0,-71.40935523454009,,,,,,
49.166155414412245,0.8402824298402135,132.0,187.00000000000003,102.68444062811706,351.3671797683389,0,-74.69939369225317,,,,,,
50.166155414412245,0.8500267877138927,133.0,187.00000000000003,102.56253674350279,350.60537484519085,0,-77.99334495257612,,,,,,
51.166155414412245,0.8597827344335413,134.0,187.00000000000003,102.44063285888852,349.8104114688334,0,-81.29121833348755,,,,,,
52.166155414412245,0.8695502975969271,135.0,187.00000000000003,102.31872897427425,348.98217380483317,0,-84.5930219415684,,,,,,
53.166155037654455,0.8793295012139296,135.99999960071088,187.00021227964555,102.19682513558821,348.1205417765732,0,-87.89875807862691,,,,,,
54.16615214413845,0.8891203521019897,136.9999784204341,187.00625984785958,102.07492160370478,347.23284253461793,0,-90.44977173884305,,,,,,
55.16614925062244,0.8989229027533792,137.99987212305297,187.02064026647258,101.95301807182135,346.3440799783288,0,-90.44977173884305,,,,,,
56.16614635710644,0.9087371811632606,138.99961127190664,187.0433525368502,101.83111453993791,345.45425155730743,0,-90.44977173884305,,,,,,
57.16614346359043,0.9185632154273967,139.9991264410671,187.07439508176054,101.70921100805448,344.5633547119687,0,-90.44977173884305,,,,,,
58.1661405700744,0.9284010337426333,140.99834822016035,187.11376574548376,101.58730747617106,343.6713868734965,0,-90.44977173884305,,,,,,
59.1661376765584,0.9382506644073854,141.99720721918672,187.16146179396188,101.46540394428763,342.7783454637991,0,-90.44977173884305,,,,,,
60.16613478304238,0.948112135822124,142.9956340733393,187.21747991498842,101.3435004124042,341.88422789546473,0,-90.44977173884305,,,,,,
61.16613188952637,0.957985476489869,143.99355944782113,187.28181621843862,101.22159688052076,340.9890315717165,0,-90.44977173884305,,,,,,
62.16612899601037,0.9678707150166831,144.99091404266005,187.3544662365395,101.09969334863733,340.0927538863669,0,-90.44977173884305,,,,,,
63.16612610249434,0.977767880112168,145.98762859752108,187.4354249241801,100.97778981675391,339.1953922237727,0,-90.44977173884305,,,,,,
64.16612320897833,0.9876770005899667,146.9836338965163,187.52468665926187,100.85588628487048,338.2969439587888,0,-90.44977173884305,,,,,,
65.16612031546232,0.9975981053682648,147.9788607730113,187.62224524308905,100.73398275298705,337.39740645672236,0,-90.44977173884305,,,,,,
66.16611742194632,1.0075312234702982,148.9732401144285,187.72809390079922,100.61207922110361,336.49677707328635,0,-90.44977173884305,,,,,,
67.16611452843031,1.017476384024862,149.9667028670466,187.84222528183372,100.49017568922018,335.5950531545529,0,-90.44977173884305,,,,,,
68.16611163491432,1.0274336162668232,150.9591800407959,187.964631460448,100.36827215733675,334.69223203690643,0,-90.44977173884305,,,,,,
69.16610874139829,1.0374029495376356,151.9506027140493,188.0953039362622,100.24636862545333,333.78831104699645,0,-90.44977173884305,,,,,,
70.16610584788229,1.0473844132858603,152.9409020384085,188.23423363485142,100.1244650935699,332.88328750169,0,-90.44977173884305,,,,,,
71.16610295436627,1.0573780370676855,153.93000924348502,188.38141090837567,100.00256156168648,331.97715870802386,0,-90.44977173884305,,,,,,
72.16610006085025,1.0673838505474535,154.91785564167606,188.53682553625012,99.88065802980304,331.0699219631566,0,-90.44977173884305,,,,,,
73.16609716733426,1.077401883498188,155.90437263293427,188.70046672585477,99.75875449791961,330.16157455432,0,-90.44977173884305,,,,,,
74.16609427381823,1.087432165802125,156.88949170953168,188.87232311328384,99.63685096603619,329.2521137587706,0,-90.44977173884305,,,,,,
75.16609138030222,1.09747472745125,157.87314446081726,189.05238276413507,99.51494743415276,328.34153684374047,0,-90.44977173884305,,,,,,
76.16608848678621,1.107529598547833,158.85526257796744,189.24063317433843,99.39304390226933,327.4298410663884,0,-90.44977173884305,,,,,,
77.16608559327021,1.1175968093049724,159.83577785872993,189.43706127102433,99.2711403703859,326.5217218136925,0,-89.9842397618449,,,,,,
78.16608269975417,1.1276763900471378,160.81462221215975,189.64165341343175,99.14923683850247,325.64691382761305,0,-86.57683143662433,,,,,,
79.16607980623817,1.1377683712107205,161.79172766334804,189.85439539385524,99.02733330661904,324.8055417346707,0,-83.1652259779637,,,,,,
80.16607691272215,1.1478727833445819,162.7670263581422,190.0752724386316,98.90542977473562,323.9977307279209,0,-79.7494130333292,,,,,,
81.16607401920615,1.157989657110611,163.7404505678582,190.30426920916597,98.78352624285219,323.2236065701441,0,-76.32938221183727,,,,,,
82.16607112569012,1.1681190232842804,164.71193269398373,190.54136980299685,98.66162271096877,322.4832955970582,0,-72.9051230840641,,,,,,
83.16606823217411,1.1782609127552102,165.6814052728727,190.7865577549005,98.53971917908534,321.7769247205528,0,-69.47662518185527,,,,,,
84.16606533865811,1.1884153565277318,166.64880098043008,191.03981603803442,98.4178156472019,321.1046214319453,0,-66.04387799813388,,,,,,
85.16606244514209,1.1985823857214564,167.61405263678714,191.30112706511954,98.29591211531849,320.46651380525924,0,-62.606870986706745,,,,,,
86.16605955162608,1.2087620315718488,168.5770932109668,191.57047268966178,98.17400858343505,319.8627305005253,0,-59.16559356207071,,,,,,
87.16605665811007,1.2189543254308013,169.53785582553843,191.84783420721217,98.05210505155162,319.2934007671043,0,-55.72003509921661,,,,,,
88.16605376459404,1.229159298767214,170.4962737612621,192.13319235666563,97.9302015196682,318.7586544470335,0,-52.27018493343232,,,,,,
89.16605087107804,1.2393769831675783,171.45228046172193,192.4265273215987,97.80829798778477,318.2586219783956,0,-48.81603236010529,,,,,,
90.16604797756203,1.2496074103365618,172.40580953794787,192.7278187316456,97.68639445590134,317.7934343987105,0,-45.357566634522534,,,,,,
91.16604508404602,1.2598506120976005,173.3567947730262,193.0370456639128,97.5644909240179,317.363223348351,0,-41.89477697167052,,,,,,
92.16604219053,1.2701066203934919,174.30517012669773,193.3541866444321,97.44258739213447,316.9681210739818,0,-38.427652546033336,,,,,,
93.16603929701401,1.280375467286992,175.25086973994408,193.6792196496517,97.32068386025104,316.6082604320214,0,-34.95618249138965,,,,,,
94.16603640349798,1.2906571849614177,176.193827939561,194.01212210796575,97.19878032836762,316.283774892129,0,-31.480355900607897,,,,,,
95.16603350998199,1.3009518057212524,177.1339792427192,194.3528709012818,97.07687679648419,315.99479854071484,0,-28.000161825441694,,,,,,
96.16603061646596,1.3112593619927526,178.07125836151147,194.7014423666261,96.95497326460077,315.74146608447484,0,-24.515589276321606,,,,,,
97.16602772294996,1.3215798863245645,179.00560020748688,195.05781229778702,96.83306973271733,315.52391285394964,0,-21.026627222148207,,,,,,
98.16602482943395,1.3319134113883366,179.93693989617046,195.42195594699587,96.7111662008339,315.3422748071084,0,-17.5332645900817,,,,,,
99.16602193591794,1.3422599699793434,180.86521275156923,195.79384802664555,96.58926266895047,315.19668853295775,0,-14.03549026533129,,,,,,
100.16601904240191,1.3526195950171085,181.7903543106635,196.17346271104665,96.46735913706705,315.0872912551749,0,-10.533293090943076,,,,,,
101.1660161488859,1.3629923195460334,182.71230032788347,196.56077363822092,96.34545560518362,315.01422083576676,0,-7.02666186758664,,,,,,
102.16601325536988,1.3733781767360294,183.63098677957066,196.9557539117318,96.2235520733002,315.0,0,-3.5155853533397448,,,,,,
103.16601036185388,1.383777199883155,184.54634986842404,197.35837610255237,96.10164854141676,315.0,0,0.0,,,,,,
104.16600746833788,1.3941895772029689,185.4583260279303,197.76861225097008,95.97688948487799,314.98155702430086,0,-1.766653159918028,,,,,,
105.16600457482188,1.4046154982334407,186.36685192677817,198.1864338685284,95.85213042833921,314.94459891709494,0,-3.535607254741781,,,,,,
106.16600168130584,1.4150549982539302,187.27186447325644,198.61181194000508,95.72737137180043,314.88905317709026,0,-5.306868285882333,,,,,,
107.16599878778982,1.425508112681824,188.17330081963536,199.04471692542722,95.60261231526165,314.81484695545697,0,-7.080442278261219,,,,,,
108.16599589427383,1.435974877073256,189.07109836653092,199.48511876212268,95.47785325872287,314.7219070537594,0,-8.856335280433102,,,,,,
109.16599300075781,1.4464553271238312,189.965194767252,199.93298686680745,95.3530942021841,314.6101599218731,0,-10.634553364710031,,,,,,
110.1659901072418,1.4569494986693587,190.85552793213014,200.38829013770984,95.22833514564532,314.479531655887,0,-12.415102627285744,,,,,,
111.1659872137258,1.4674574276865862,191.74203603283112,200.85099695673017,95.10357608910654,314.32994799599027,0,-14.197989188361037,,,,,,
112.1659843202098,1.4779791502939388,192.62465750664867,201.32107519163634,94.97881703256776,314.16133432434424,0,-15.983219192270074,,,,,,
113.16598142669379,1.4885147027522652,193.50333106077957,201.79849219829543,94.85405797602898,313.9736156629386,0,-17.770798807607402,,,,,,
114.16597853317775,1.4990641214655869,194.37799567658013,202.28321482294047,94.7292989194902,313.76671667143245,0,-19.560734227356004,,,,,,
115.16597563966175,1.509627442981854,195.24859061380354,202.77520940447295,94.60453986295143,313.5405616449795,0,-21.353031669015653,,,,,,
116.16597274614573,1.5202047039937026,196.11505541481793,203.27444177680013,94.47978080641265,313.29507451203756,0,-23.14769737473296,,,,,,
117.16596985262974,1.5307959413392225,196.9773299088048,203.78087727120797,94.35502174987387,313.0301788321622,0,-24.944737611431343,,,,,,
118.16596695911373,1.541401192002724,197.8353542159374,204.2944807187684,94.23026269333509,312.7457977937842,0,-26.74415867094271,,,,,,
119.16596406559769,1.552020493115515,198.68906875153928,204.8152164527817,94.10550363679631,312.4418542119712,0,-28.54596687013961,,,,,,
120.16596117208171,1.5626538819566813,199.53841423022192,205.34304831125348,93.98074458025754,312.11827052617235,0,-30.350168551067824,,,,,,
121.16595827856568,1.5733013959538684,200.38333167000167,205.8779396394056,93.85598552371876,311.77496879794757,0,-32.15677008108102,,,,,,
122.16595538504968,1.5839630726840768,201.22376239639593,206.419853292222,93.73122646717998,311.4118707086791,0,-33.96577785297492,,,,,,
123.16595249153367,1.5946389498744533,202.05964804649753,206.96875163702782,93.6064674106412,311.02889755726704,0,-35.77719828512343,,,,,,
124.16594959801763,1.605329065403095,202.8909305730278,207.52459655610306,93.48170835410242,310.62597025780786,0,-37.591037821615274,,,,,,
125.16594670450162,1.6160334572998547,203.7175522483676,208.0873494493295,93.35694929756365,310.2030093372558,0,-39.40730293239134,,,,,,
126.16594381098564,1.6267521637471525,204.53945566856618,208.6569712368713,93.23219024102487,309.75993493306703,0,-41.226000113383144,,,,,,
127.16594091746961,1.6374852230807921,205.35658375732731,209.23342236188876,93.10743118448609,309.29666679082675,0,-43.04713588665249,,,,,,
128.1659380239536,1.6482326737907858,206.1688797699733,209.81666279328545,92.98267212794731,308.8131242618586,0,-44.87071680053155,,,,,,
129.1659351304376,1.65899455452218,206.97628729738523,210.406652028488,92.85791307140853,308.3092263008167,0,-46.69674942976431,,,,,,
130.1659322369216,1.6697709040758915,207.77875026992047,211.00334909625883,92.73315401486975,307.7848914632595,0,-48.52524037564857,,,,,,
131.1659293434056,1.680561761409544,208.57621296130608,211.6067125595414,92.60839495833098,307.24003790320614,0,-50.3561962661794,,,,,,
132.16592644988958,1.691367165638316,209.36861999250908,212.21670051833763,92.4836359017922,306.67458337067455,0,-52.18962375619321,,,,,,
133.16592355637357,1.70218715603579,210.1559163355818,212.83327061261784,92.35887684525342,306.0884452092012,0,-54.02552952751274,,,,,,
134.16592066285756,1.7130217720348087,210.9380473174835,213.45638002526206,92.23411778871464,305.48154035334284,0,-55.86392028909336,,,,,,
135.16591776934155,1.7238710532283383,211.71495862387695,214.08598548503377,92.10935873217586,304.8537853261591,0,-57.704802777169995,,,,,,
136.1659148758255,1.7347350393703358,212.48659630290035,214.7220432695846,91.98459967563709,304.2050962366769,0,-59.54818375540549,,,,,,
137.16591198230952,1.745613770376624,213.2529067689139,215.3645092084907,91.8598406190983,303.53538877733587,0,-61.394070015039276,,,,,,
138.1659090887935,1.7565072863257691,214.01383680622092,216.01333868632003,91.73508156255953,302.8445782214142,0,-63.24246837503791,,,,,,
139.16590619527747,1.7674156274599697,214.76933357276354,216.6684866457307,91.61032250602075,302.14369698448075,0,-64.07697963886103,,,,,,
140.1659033017615,1.7783388341859476,215.51934460379215,217.3299075906,91.48556344948197,301.44185799518743,0,-64.07697963886103,,,,,,
141.16590040824545,1.7892769470758438,216.26381781550873,217.9975555891836,91.3608043929432,300.7390586324204,0,-64.07697963886103,,,,,,
142.16589751472947,1.8002300068681267,217.00270150868394,218.67138427730555,91.23604533640442,300.035296264291,0,-64.07697963886103,,,,,,
143.16589462121345,1.8111980544684982,217.7359443722471,219.35134686157767,91.11128627986564,299.33056824807693,0,-64.07697963886103,,,,,,
144.16589172769744,1.8221811309508136,218.4634954868496,220.03739612264937,90.98652722332686,298.6248719301624,0,-64.07697963886103,,,,,,
145.16588883418143,1.833179277558003,219.1853043284009,220.72948441848652,90.86176816678808,297.91820464597834,0,-64.07697963886103,,,,,,
146.16588594066542,1.8441925357030007,219.901320771577,221.42756368768005,90.7370091102493,297.21056371994194,0,-64.07697963886103,,,,,,
147.1658830471494,1.8552209469696812,220.61149509330158,222.1315854527835,90.61225005371053,296.50194646539614,0,-64.07697963886103,,,,,,
148.16588015363342,1.8662645531138011,221.31577797619883,222.84150082367944,90.48749099717175,295.79235018454796,0,-64.07697963886103,,,,,,
