Distance (in),Time (s),X (in),Y (in),Velocity (in/s),Orientation (deg),Touch,Rotational Velocity (deg/s),Way X (in),Way Y (in),Way Velocity (in/s),Way Orientation (deg),Way Turn Radius (in),Touch this Point
0.0,0.0,74.0,298.6,12.0,0.0,0,0.0,74.0,298.6,12.0,0.0,3.0,0
1.0000000000000113,0.07936490297857107,74.8,298.0,13.200056006368872,0.0,0,0.0,90.0,286.6,36.0,0.0,20.0,0
2.0000000000000226,0.15182822996322906,75.6,297.4,14.400112012737743,0.0,0,0.0,200.0,286.6,96.0,0.0,10.0,0
3.0000000000000338,0.21849427434271768,76.39999999999999,296.79999999999995,15.600168019106615,0.0,0,0.0,230.0,283.6,72.0,0.0,10.0,0
4.000000000000045,0.2802219224911745,77.19999999999999,296.19999999999993,16.800224025475487,0.0,0,0.0,282.0,283.6,12.0,0.0,3.0,0
5.000000000000057,0.3376923544339368,77.99999999999999,295.5999999999999,18.00028003184436,0.0,0,-0.0,,,,,,
6.000000000000068,0.3914549049313143,78.79999999999998,294.9999999999999,19.20033603821323,0.0,0,-0.0,,,,,,
7.00000000000008,0.44195902687115635,79.59999999999998,294.39999999999986,20.4003920445821,0.0,0,-0.0,,,,,,
8.00000000000009,0.4895771220199895,80.39999999999998,293.79999999999984,21.600448050950973,0.0,0,-0.0,,,,,,
9.000000000000101,0.5346212011452087,81.19999999999997,293.1999999999998,22.800504057319845,0.0,0,-0.0,,,,,,
10.000000000000112,0.5773552722088245,81.99999999999997,292.5999999999998,24.000560063688717,0.0,0,-0.0,,,,,,
11.000000000000123,0.6180047069817517,82.79999999999997,291.9999999999998,25.20061607005759,0.0,0,0.0,,,,,,
12.000000000000133,0.6567634293284204,83.59999999999997,291.39999999999975,26.40067207642646,0.0,0,0.0,,,,,,
13.000000000000144,0.6937995060616731,84.39999999999996,290.7999999999997,27.60072808279533,0.0,0,0.0,,,,,,
13.999691584551503,0.7292488444298981,85.20636506663915,290.2091035255418,28.80041397335259,0.0,0,0.0,,,,,,
14.999587421139983,0.7632584679253781,86.03989084882944,289.6568115244672,30.000344977793812,0.0,0,0.0,,,,,,
15.999483257728508,0.7959344709104319,86.89997803624648,289.1468686707393,31.200275982235087,0.0,0,0.0,,,,,,
16.99937909431699,0.827377497438304,87.78447685884645,288.6805495559196,32.40020698667631,0.0,0,0.0,,,,,,
17.99927493090548,0.8576772128996372,88.69117653021092,288.25901973494064,33.60013799111754,0.0,0,0.0,,,,,,
18.999170767493965,0.8869138447941358,89.61781077336158,287.8833328128265,34.80006899555877,0.0,0,0.0,,,,,,
19.999066604082454,0.9149857427427783,90.56206348527232,287.55442781122844,36.43813787009723,0.0,0,0.0,,,,,,
20.998962440670955,0.9418234165291703,91.52157452592067,287.27312682136005,38.076206744635705,0.0,0,0.0,,,,,,
21.99885827725945,0.9675308245874517,92.49394561740868,287.04013294919724,39.71427561917418,0.0,0,0.0,,,,,,
22.998754113847944,0.9921993215642867,93.47674633840874,286.8560285580797,41.35234449371265,0.0,0,0.0,,,,,,
23.99864995043644,1.0159096166017085,94.46752019895105,286.7212738131053,42.990413368251126,0.0,0,0.0,,,,,,
24.998545787024927,1.0387333655114697,95.4637907803693,286.63620553095774,44.62848224278958,0.0,0,0.0,,,,,,
25.998545787024927,1.0607367266557586,96.4637907803693,286.63620553095774,46.26672176194523,0.0,0,0.0,,,,,,
26.998545787024927,1.0819745333442703,97.4637907803693,286.63620553095774,47.904961281100874,0.0,0,0.0,,,,,,
27.998545787024927,1.1024982657295999,98.4637907803693,286.63620553095774,49.54320080025652,0.0,0,0.0,,,,,,
28.998545787024927,1.1223543801596711,99.4637907803693,286.63620553095774,51.18144031941217,0.0,0,0.0,,,,,,
29.998545787024927,1.1415849422628672,100.4637907803693,286.63620553095774,52.819679838567815,0.0,0,0.0,,,,,,
30.998545787024927,1.160228163354537,101.4637907803693,286.63620553095774,54.45791935772346,0.0,0,0.0,,,,,,
31.998545787024927,1.178318857356398,102.4637907803693,286.63620553095774,56.09615887687911,0.0,0,0.0,,,,,,
32.99854578702492,1.195888831956495,103.4637907803693,286.63620553095774,57.73439839603475,0.0,0,0.0,,,,,,
33.99854578702492,1.2129672250488177,104.4637907803693,286.63620553095774,59.372637915190396,0.0,0,0.0,,,,,,
34.99854578702492,1.2295807953885187,105.4637907803693,286.63620553095774,61.01087743434604,0.0,0,0.0,,,,,,
35.99854578702492,1.2457541747413206,106.4637907803693,286.63620553095774,62.64911695350169,0.0,0,0.0,,,,,,
36.99854578702492,1.26151008749057,107.4637907803693,286.63620553095774,64.28735647265734,0.0,0,0.0,,,,,,
37.99854578702492,1.2768695426150187,108.4637907803693,286.63620553095774,65.92559599181298,0.0,0,0.0,,,,,,
38.99854578702492,1.2918520021062656,109.4637907803693,286.63620553095774,67.56383551096863,0.0,0,0.0,,,,,,
39.99854578702492,1.3064755292124526,110.4637907803693,286.63620553095774,69.20207503012428,0.0,0,0.0,,,,,,
40.99854578702492,1.320756919340161,111.4637907803693,286.63620553095774,70.84031454927992,0.0,0,0.0,,,,,,
41.99854578702492,1.334711815993265,112.4637907803693,286.63620553095774,72.47855406843557,0.0,0,0.0,,,,,,
42.99854578702492,1.3483548137553278,113.4637907803693,286.63620553095774,74.11679358759122,0.0,0,0.0,,,,,,
43.99854578702492,1.3616995500150584,114.4637907803693,286.63620553095774,75.75503310674686,0.0,0,0.0,,,,,,
44.99854578702492,1.3747587868798226,115.4637907803693,286.63620553095774,77.39327262590251,0.0,0,0.0,,,,,,
45.99854578702492,1.3875444845103382,116.4637907803693,286.63620553095774,79.03151214505816,0.0,0,-0.0,,,,,,
46.99854578702492,1.4000678669325872,117.4637907803693,286.63620553095774,80.6697516642138,0.0,0,-0.0,,,,,,
47.99854578702492,1.412339481234366,118.4637907803693,286.63620553095774,82.30799118336945,0.0,0,-0.0,,,,,,
48.99854578702492,1.4243692509287118,119.4637907803693,286.63620553095774,83.9462307025251,0.0,0,-0.0,,,,,,
49.99854578702492,1.4361665241606214,120.4637907803693,286.63620553095774,85.58447022168075,0.0,0,-0.0,,,,,,
50.99854578702492,1.447740117343693,121.4637907803693,286.63620553095774,87.2227097408364,0.0,0,-0.0,,,,,,
51.99854578702492,1.4590983547369232,122.4637907803693,286.63620553095774,88.86094925999204,0.0,0,-0.0,,,,,,
52.99854578702492,1.4702491044066384,123.4637907803693,286.63620553095774,90.49918877914769,0.0,0,-0.0,,,,,,
53.99854578702492,1.4811998109626618,124.4637907803693,286.63620553095774,92.13742829830333,0.0,0,-0.0,,,,,,
54.99854578702492,1.4919575254098176,125.4637907803693,286.63620553095774,93.77566781745898,0.0,0,-0.0,,,,,,
55.99854578702492,1.5025289324145177,126.4637907803693,286.63620553095774,95.41390733661463,0.0,0,-0.0,,,,,,
56.99854578702492,1.5129774940045742,127.4637907803693,286.63620553095774,96.0,0.0,0,-0.0,,,,,,
57.99854578702492,1.523394160671241,128.4637907803693,286.63620553095774,96.0,0.0,0,-0.0,,,,,,
58.99854578702492,1.5338108273379076,129.4637907803693,286.63620553095774,96.0,0.0,0,-0.0,,,,,,
59.99854578702492,1.5442274940045744,130.4637907803693,286.63620553095774,96.0,0.0,0,-0.0,,,,,,
60.99854578702492,1.5546441606712411,131.4637907803693,286.63620553095774,96.0,0.0,0,-0.0,,,,,,
61.99854578702492,1.5650608273379079,132.4637907803693,286.63620553095774,96.0,0.0,0,-0.0,,,,,,
62.99854578702492,1.5754774940045746,133.4637907803693,286.63620553095774,96.0,0.0,0,-0.0,,,,,,
63.99854578702492,1.5858941606712413,134.4637907803693,286.63620553095774,96.0,0.0,0,-0.0,,,,,,
64.99854578702492,1.596310827337908,135.4637907803693,286.63620553095774,96.0,0.0,0,-0.0,,,,,,
65.99854578702492,1.6067274940045748,136.4637907803693,286.63620553095774,96.0,0.0,0,-0.0,,,,,,
66.99854578702492,1.6171441606712416,137.4637907803693,286.63620553095774,96.0,0.0,0,-0.0,,,,,,
67.99854578702492,1.6275608273379083,138.4637907803693,286.63620553095774,96.0,0.0,0,-0.0,,,,,,
68.99854578702492,1.637977494004575,139.4637907803693,286.63620553095774,96.0,0.0,0,-0.0,,,,,,
69.99854578702492,1.6483941606712418,140.4637907803693,286.63620553095774,96.0,0.0,0,-0.0,,,,,,
70.99854578702492,1.6588108273379085,141.4637907803693,286.63620553095774,96.0,0.0,0,-0.0,,,,,,
71.99854578702492,1.6692274940045753,142.4637907803693,286.63620553095774,96.0,0.0,0,-0.0,,,,,,
72.99854578702492,1.679644160671242,143.4637907803693,286.63620553095774,96.0,0.0,0,-0.0,,,,,,
73.99854578702492,1.6900608273379087,144.4637907803693,286.63620553095774,96.0,0.0,0,-0.0,,,,,,
74.99854578702492,1.7004774940045755,145.4637907803693,286.63620553095774,96.0,0.0,0,-0.0,,,,,,
75.99854578702492,1.7108941606712422,146.4637907803693,286.63620553095774,96.0,0.0,0,-0.0,,,,,,
76.99854578702492,1.721310827337909,147.4637907803693,286.63620553095774,96.0,0.0,0,-0.0,,,,,,
77.99854578702492,1.7317274940045757,148.4637907803693,286.63620553095774,96.0,0.0,0,-0.0,,,,,,
78.99854578702492,1.7421441606712424,149.4637907803693,286.63620553095774,96.0,0.0,0,-0.0,,,,,,
79.99854578702492,1.7525608273379092,150.4637907803693,286.63620553095774,96.0,0.0,0,-0.0,,,,,,
80.99854578702492,1.762977494004576,151.4637907803693,286.63620553095774,96.0,0.0,0,-0.0,,,,,,
81.99854578702492,1.7733941606712427,152.4637907803693,286.63620553095774,96.0,0.0,0,-0.0,,,,,,
82.99854578702492,1.7838108273379094,153.4637907803693,286.63620553095774,96.0,0.0,0,-0.0,,,,,,
83.99854578702492,1.7942274940045762,154.4637907803693,286.63620553095774,96.0,0.0,0,0.0,,,,,,
84.99854578702492,1.804644160671243,155.4637907803693,286.63620553095774,96.0,0.0,0,0.0,,,,,,
85.99854578702492,1.8150608273379096,156.4637907803693,286.63620553095774,96.0,0.0,0,0.0,,,,,,
86.99854578702492,1.8254774940045764,157.4637907803693,286.63620553095774,96.0,0.0,0,0.0,,,,,,
87.99854578702492,1.8358941606712431,158.4637907803693,286.63620553095774,96.0,0.0,0,0.0,,,,,,
88.99854578702492,1.8463108273379099,159.4637907803693,286.63620553095774,96.0,0.0,0,0.0,,,,,,
89.99854578702492,1.8567274940045766,160.4637907803693,286.63620553095774,96.0,0.0,0,0.0,,,,,,
90.99854578702492,1.8671441606712433,161.4637907803693,286.63620553095774,96.0,0.0,0,0.0,,,,,,
91.99854578702492,1.87756082733791,162.4637907803693,286.63620553095774,96.0,0.0,0,0.0,,,,,,
92.99854578702492,1.8879774940045768,163.4637907803693,286.63620553095774,96.0,0.0,0,0.0,,,,,,
93.99854578702492,1.8983941606712436,164.4637907803693,286.63620553095774,96.0,0.0,0,0.0,,,,,,
94.99854578702492,1.9088108273379103,165.4637907803693,286.63620553095774,96.0,0.0,0,0.0,,,,,,
95.99854578702492,1.919227494004577,166.4637907803693,286.63620553095774,96.0,0.0,0,0.0,,,,,,
96.99854578702492,1.9296441606712438,167.4637907803693,286.63620553095774,96.0,0.0,0,0.0,,,,,,
97.99854578702492,1.9400608273379105,168.4637907803693,286.63620553095774,96.0,0.0,0,0.0,,,,,,
98.99854578702492,1.9504774940045773,169.4637907803693,286.63620553095774,96.0,0.0,0,0.0,,,,,,
99.99854578702492,1.960894160671244,170.4637907803693,286.63620553095774,96.0,0.0,0,0.0,,,,,,
100.99854578702492,1.9713108273379107,171.4637907803693,286.63620553095774,96.0,0.0,0,0.0,,,,,,
101.99854578702492,1.9817274940045775,172.4637907803693,286.63620553095774,96.0,0.0,0,0.0,,,,,,
102.99854578702492,1.9921441606712442,173.4637907803693,286.63620553095774,96.0,0.0,0,0.0,,,,,,
103.99854578702492,2.002560827337911,174.4637907803693,286.63620553095774,96.0,0.0,0,0.0,,,,,,
104.99854578702492,2.0129774940045775,175.4637907803693,286.63620553095774,96.0,0.0,0,0.0,,,,,,
105.99854578702492,2.023394160671244,176.4637907803693,286.63620553095774,96.0,0.0,0,0.0,,,,,,
106.99854578702492,2.0338108273379105,177.4637907803693,286.63620553095774,96.0,0.0,0,0.0,,,,,,
107.99854578702492,2.044227494004577,178.4637907803693,286.63620553095774,96.0,0.0,0,0.0,,,,,,
108.99854578702492,2.0546441606712436,179.4637907803693,286.63620553095774,96.0,0.0,0,0.0,,,,,,
109.99854578702492,2.06506082733791,180.4637907803693,286.63620553095774,96.0,0.0,0,0.0,,,,,,
110.99854578702492,2.0754774940045766,181.4637907803693,286.63620553095774,96.0,0.0,0,0.0,,,,,,
111.99854578702492,2.085894160671243,182.4637907803693,286.63620553095774,96.0,0.0,0,0.0,,,,,,
112.99854578702492,2.0963108273379096,183.4637907803693,286.63620553095774,96.0,0.0,0,0.0,,,,,,
113.99854578702492,2.106727494004576,184.4637907803693,286.63620553095774,96.0,0.0,0,0.0,,,,,,
114.99854578702492,2.1171441606712427,185.4637907803693,286.63620553095774,96.0,0.0,0,0.0,,,,,,
115.99854578702492,2.127560827337909,186.4637907803693,286.63620553095774,96.0,0.0,0,0.0,,,,,,
116.99854578702492,2.1379774940045757,187.4637907803693,286.63620553095774,96.0,0.0,0,0.0,,,,,,
117.99854578702492,2.1483941606712422,188.4637907803693,286.63620553095774,96.0,0.0,0,0.0,,,,,,
118.99854578702492,2.1588108273379087,189.4637907803693,286.63620553095774,96.0,0.0,0,0.0,,,,,,
119.99854578702492,2.1692274940045753,190.4637907803693,286.63620553095774,96.0,0.0,0,0.0,,,,,,
120.99854578702492,2.179644160671242,191.4637907803693,286.63620553095774,96.0,0.0,0,0.0,,,,,,
121.99854578702492,2.1900608273379083,192.4637907803693,286.63620553095774,96.0,0.0,0,0.0,,,,,,
122.99854578702492,2.200477494004575,193.4637907803693,286.63620553095774,96.0,0.0,0,0.0,,,,,,
123.99854578702492,2.2108941606712413,194.4637907803693,286.63620553095774,96.0,0.0,0,0.0,,,,,,
124.99854578702492,2.221310827337908,195.4637907803693,286.63620553095774,96.0,0.0,0,0.0,,,,,,
125.99854578702492,2.2317274940045744,196.4637907803693,286.63620553095774,96.0,0.0,0,0.0,,,,,,
126.99854578702492,2.242144160671241,197.4637907803693,286.63620553095774,96.0,0.0,0,0.0,,,,,,
127.99854578702492,2.2525608273379074,198.4637907803693,286.63620553095774,96.0,0.0,0,0.0,,,,,,
128.9985457870249,2.262977494004574,199.4637907803693,286.63620553095774,96.0,0.0,0,0.0,,,,,,
129.53597593847616,2.268588226465753,200.0,286.6,95.57218960973266,0.0,0,0.0,,,,,,
130.53597593847616,2.2790952784344047,200.99503719020998,286.500496280979,94.77615985756466,0.0,0,0.0,,,,,,
131.53597593847616,2.289690951830997,201.99007438041997,286.400992561958,93.98013010539667,0.0,0,0.0,,,,,,
132.53597593847616,2.3003767543216718,202.98511157062995,286.301488842937,93.18410035322867,0.0,0,0.0,,,,,,
133.53597593847616,2.3111542323762486,203.98014876083994,286.20198512391596,92.38807060106068,0.0,0,0.0,,,,,,
134.53597593847616,2.3220249726113638,204.97518595104992,286.10248140489495,91.59204084889268,0.0,0,0.0,,,,,,
135.53597593847616,2.3329906031922327,205.9702231412599,286.00297768587393,90.79601109672468,0.0,0,0.0,,,,,,
136.53597593847616,2.344052795296129,206.9652603314699,285.9034739668529,89.99998134455669,0.0,0,0.0,,,,,,
137.53597593847616,2.355213264640871,207.96029752167988,285.8039702478319,89.20395159238869,0.0,0,0.0,,,,,,
138.53597593847616,2.3664737730818164,208.95533471188986,285.7044665288109,88.4079218402207,0.0,0,0.0,,,,,,
139.53597593847616,2.3778361302810747,209.95037190209985,285.60496280978987,87.6118920880527,0.0,0,0.0,,,,,,
140.53597593847616,2.3893021954529,210.94540909230983,285.50545909076885,86.8158623358847,0.0,0,-0.0,,,,,,
141.53597593847616,2.4008738791894704,211.94044628251982,285.40595537174784,86.0198325837167,0.0,0,-0.0,,,,,,
142.53597593847616,2.412553145371539,212.9354834727298,285.3064516527268,85.22380283154871,0.0,0,-0.0,,,,,,
143.53597593847616,2.4243420131687357,213.93052066293978,285.2069479337058,84.42777307938071,0.0,0,-0.0,,,,,,
144.53597593847616,2.436242559134614,214.92555785314977,285.1074442146848,83.63174332721272,0.0,0,-0.0,,,,,,
145.53597593847616,2.4482569194018846,215.92059504335975,285.0079404956638,82.83571357504472,0.0,0,-0.0,,,,,,
146.53597593847616,2.460387291983629,216.91563223356974,284.90843677664276,82.03968382287673,0.0,0,-0.0,,,,,,
147.53597593847616,2.47263593918671,217.91066942377972,284.80893305762174,81.24365407070873,0.0,0,-0.0,,,,,,
148.53597593847616,2.4850051901439896,218.9057066139897,284.7094293386007,80.44762431854073,0.0,0,-0.0,,,,,,
149.53597593847616,2.4974974434724566,219.9007438041997,284.6099256195797,79.65159456637274,0.0,0,0.0,,,,,,
150.53597593847616,2.5101151700648434,220.89578099440968,284.5104219005587,78.85556481420474,0.0,0,0.0,,,,,,
151.53597593847616,2.522860916022864,221.89081818461966,284.4109181815377,78.05953506203674,0.0,0,0.0,,,,,,
152.53597593847616,2.535737305740778,222.88585537482965,284.31141446251667,77.26350530986875,0.0,0,0.0,,,,,,
153.53597593847616,2.5487470451486267,223.88089256503963,284.21191074349565,76.46747555770075,0.0,0,0.0,,,,,,
154.53597593847616,2.561892925125158,224.87592975524962,284.11240702447463,75.67144580553276,0.0,0,0.0,,,,,,
155.53597593847616,2.57517782509122,225.8709669454596,284.0129033054536,74.87541605336476,0.0,0,0.0,,,,,,
156.53597593847616,2.5886047167951833,226.86600413566958,283.9133995864326,74.07938630119676,0.0,0,0.0,,,,,,
157.53597593847616,2.60217666830285,227.86104132587957,283.8138958674116,73.28335654902877,0.0,0,0.0,,,,,,
158.53597593847616,2.6158968482052405,228.85607851608955,283.7143921483906,72.48732679686077,0.0,0,0.0,,,,,,
159.53597593847616,2.6297388926553524,229.85111570629954,283.61488842936956,72.0,0.0,0,0.0,,,,,,
159.6856028018389,2.63181953809028,230.0,283.6,71.82735361919683,0.0,0,0.0,,,,,,
160.6856028018389,2.6458545410002863,231.0,283.6,70.67350746535067,0.0,0,0.0,,,,,,
161.6856028018389,2.660120571345769,232.0,283.6,69.5196613115045,0.0,0,0.0,,,,,,
162.6856028018389,2.674625362214351,233.0,283.6,68.36581515765835,0.0,0,0.0,,,,,,
163.6856028018389,2.6893770415722176,234.0,283.6,67.21196900381219,0.0,0,0.0,,,,,,
164.6856028018389,2.704384159614834,235.0,283.6,66.05812284996603,0.0,0,0.0,,,,,,
165.6856028018389,2.7196557185274073,236.0,283.6,64.90427669611987,0.0,0,0.0,,,,,,
166.6856028018389,2.7352012049144236,237.0,283.6,63.75043054227371,0.0,0,0.0,,,,,,
167.6856028018389,2.751030625190771,238.0,283.6,62.59658438842756,0.0,0,0.0,,,,,,
168.6856028018389,2.7671545442650354,239.0,283.6,61.442738234581405,0.0,0,0.0,,,,,,
169.6856028018389,2.783584127889435,240.0,283.6,60.28889208073525,0.0,0,0.0,,,,,,
170.6856028018389,2.8003311891015037,241.0,283.6,59.1350459268891,0.0,0,0.0,,,,,,
171.6856028018389,2.817408239241279,242.0,283.6,57.981199773042945,0.0,0,0.0,,,,,,
172.6856028018389,2.8348285440958056,243.0,283.6,56.82735361919679,0.0,0,0.0,,,,,,
173.6856028018389,2.852606185802005,244.0,283.6,55.67350746535064,0.0,0,0.0,,,,,,
174.6856028018389,2.8707561312314724,245.0,283.6,54.519661311504485,0.0,0,0.0,,,,,,
175.6856028018389,2.8892943076890947,246.0,283.6,53.36581515765833,0.0,0,0.0,,,,,,
176.6856028018389,2.9082376868846764,247.0,283.6,52.21196900381218,0.0,0,0.0,,,,,,
177.6856028018389,2.9276043782867895,248.0,283.6,51.058122849966026,0.0,0,0.0,,,,,,
178.6856028018389,2.947413733145546,249.0,283.6,49.90427669611987,0.0,0,0.0,,,,,,
179.6856028018389,2.9676864606816697,250.0,283.6,48.75043054227372,0.0,0,0.0,,,,,,
180.6856028018389,2.9884447581903006,251.0,283.6,47.596584388427566,0.0,0,0.0,,,,,,
181.6856028018389,3.0097124571083134,252.0,283.6,46.44273823458141,0.0,0,0.0,,,,,,
182.6856028018389,3.031515187454708,253.0,283.6,45.28889208073526,0.0,0,0.0,,,,,,
183.6856028018389,3.0538805634889132,254.0,283.6,44.135045926889106,0.0,0,0.0,,,,,,
184.6856028018389,3.0768383939593504,255.0,283.6,42.98119977304295,0.0,0,0.0,,,,,,
185.6856028018389,3.1004209209569518,256.0,283.6,41.8273536191968,0.0,0,0.0,,,,,,
186.6856028018389,3.124663092174418,257.0,283.6,40.673507465350646,0.0,0,0.0,,,,,,
187.6856028018389,3.1496028723390497,258.0,283.6,39.51966131150449,0.0,0,0.0,,,,,,
188.6856028018389,3.1752816007832654,259.0,283.6,38.36581515765834,0.0,0,-0.0,,,,,,
189.6856028018389,3.2017444036054155,260.0,283.6,37.211969003812186,0.0,0,-0.0,,,,,,
190.6856028018389,3.229040670737048,261.0,283.6,36.05812284996603,0.0,0,-0.0,,,,,,
191.6856028018389,3.25722461058115,262.0,283.6,34.90427669611988,0.0,0,-0.0,,,,,,
192.6856028018389,3.2863558978657244,263.0,283.6,33.750430542273726,0.0,0,-0.0,,,,,,
193.6856028018389,3.3165004341660986,264.0,283.6,32.59658438842757,0.0,0,-0.0,,,,,,
194.6856028018389,3.3477312454564325,265.0,283.6,31.44273823458142,0.0,0,-0.0,,,,,,
195.6856028018389,3.3801295474255246,266.0,283.6,30.288892080735266,0.0,0,-0.0,,,,,,
196.6856028018389,3.4137860176470602,267.0,283.6,29.135045926889113,0.0,0,-0.0,,,,,,
197.6856028018389,3.4488023247500736,268.0,283.6,27.98119977304296,0.0,0,-0.0,,,,,,
198.6856028018389,3.485292979514977,269.0,283.6,26.827353619196806,0.0,0,-0.0,,,,,,
