Distance (in),Time (s),X (in),Y (in),Velocity (in/s),Orientation (deg),Touch,Rotational Velocity (deg/s),Way X (in),Way Y (in),Way Velocity (in/s),Way Orientation (deg),Way Turn Radius (in),Touch this Point
0.0,0.0,74.0,116.60000000000002,12.0,0.0,0,0.0,74.0,116.60000000000002,12.0,0.0,3.0,0.0
1.0000000000000033,0.07936500814488544,74.8661855860486,117.0997224534896,13.200022613856353,0.0,0,0.0,100.0,131.6,48.0,0.0,20.0,0
2.0000000000000067,0.15182859814330435,75.7323711720972,117.59944490697919,14.400045227712706,0.0,0,0.0,200.0,131.6,84.0,0.0,3.0,0
3.0000000000000098,0.21849501354584763,76.5985567581458,118.09916736046877,15.600067841569059,0.0,0,0.0,282.0,137.6,12.0,0.0,3.0,0
4.000000000000013,0.28022310702203085,77.4647423441944,118.59888981395835,16.800090455425412,0.0,0,0.0,,,,,,
5.000000000000017,0.33769403527623093,78.330927930243,119.09861226744793,18.000113069281767,0.0,0,0.0,,,,,,
6.00000000000002,0.3914571166284734,79.19711351629161,119.59833472093752,19.20013568313812,0.0,0,0.0,,,,,,
7.000000000000024,0.4419617921999074,80.06329910234021,120.0980571744271,20.400158296994476,0.0,0,-0.0,,,,,,
8.000000000000027,0.4895804552326674,80.92948468838881,120.59777962791668,21.600180910850828,0.0,0,-0.0,,,,,,
9.00000000000003,0.5346251102604358,81.79567027443741,121.09750208140626,22.800203524707182,0.0,0,-0.0,,,,,,
10.000000000000034,0.5773597606555286,82.66185586048601,121.59722453489584,24.000226138563537,0.0,0,-0.0,,,,,,
11.000000000000037,0.6180097747952606,83.52804144653462,122.09694698838543,25.200248752419892,0.0,0,-0.0,,,,,,
12.00000000000004,0.6567690740309937,84.39422703258322,122.59666944187501,26.400271366276247,0.0,0,-0.0,,,,,,
13.000000000000044,0.6938057233173518,85.26041261863182,123.09639189536459,27.6002939801326,0.0,0,-0.0,,,,,,
14.000000000000048,0.72926633233632,86.12659820468042,123.59611434885417,28.800316593988956,0.0,0,-0.0,,,,,,
15.000000000000052,0.7632795584258429,86.99278379072902,124.09583680234375,30.00033920784531,0.0,0,0.0,,,,,,
16.000000000000053,0.7959589226546028,87.85896937677762,124.59555925583334,31.200361821701662,0.0,0,0.0,,,,,,
17.000000000000057,0.8274050945581553,88.72515496282622,125.09528170932292,32.40038443555802,0.0,0,0.0,,,,,,
18.00000000000006,0.8577077614656481,89.59134054887483,125.5950041628125,33.60040704941437,0.0,0,0.0,,,,,,
19.000000000000064,0.886947169872316,90.45752613492343,126.09472661630208,34.80042966327073,0.0,0,0.0,,,,,,
20.000000000000068,0.9151954055607311,91.32371172097203,126.59444906979166,36.00045227712708,0.0,0,0.0,,,,,,
21.00000000000007,0.9425174638648135,92.18989730702063,127.09417152328125,37.200474890983436,0.0,0,0.0,,,,,,
22.000000000000075,0.9689721500496502,93.05608289306923,127.59389397677083,38.40049750483979,0.0,0,0.0,,,,,,
23.00000000000007,0.9946128411705378,93.92226847911783,128.0936164302604,39.60052011869614,0.0,0,0.0,,,,,,
24.000000000000068,1.0194881342210815,94.78845406516643,128.59333888374996,40.800542732552486,0.0,0,0.0,,,,,,
24.99995548130247,1.043641340613502,95.65603197318904,129.0905506475869,42.00051192296498,0.0,0,0.0,,,,,,
25.999851317890975,1.0671128200162745,96.54231703570285,129.5534658363547,43.200409538372,0.0,0,0.0,,,,,,
26.999747154479458,1.0899413053151412,97.45063058925007,129.97150671051583,44.40030715377899,0.0,0,0.0,,,,,,
27.999642991067958,1.112161086408039,98.3787023229874,130.34362838559645,45.600204769186,0.0,0,0.0,,,,,,
28.99953882765646,1.133803781489656,99.3242125409109,130.66890075120602,46.80010238459301,0.0,0,0.0,,,,,,
29.999434664244948,1.1548084803350724,100.28479795988798,130.9465107958291,48.406769558413444,0.0,0,0.0,,,,,,
30.999330500833437,1.1751273939865166,101.2580576166344,131.17576463893067,50.01343673223388,0.0,0,0.0,,,,,,
31.99922633742193,1.1948038872053666,102.24155886887213,131.35608926529608,51.62010390605432,0.0,0,0.0,,,,,,
32.99912217401043,1.2138773376391099,103.23284347566813,131.48703395727063,53.22677107987477,0.0,0,0.0,,,,,,
33.999018010598924,1.2323836100728773,104.22943374175645,131.56827142131905,54.83343825369521,0.0,0,0.0,,,,,,
34.999018010598924,1.2503573073733927,105.22943374175645,131.56827142131905,56.44027280088382,0.0,0,0.0,,,,,,
35.999018010598924,1.2678264816823677,106.22943374175645,131.56827142131905,58.04710734807242,0.0,0,0.0,,,,,,
36.999018010598924,1.2848186836453699,107.22943374175645,131.56827142131905,59.65394189526103,0.0,0,0.0,,,,,,
37.999018010598924,1.3013592671863583,108.22943374175645,131.56827142131905,61.26077644244963,0.0,0,0.0,,,,,,
38.999018010598924,1.3174716169991214,109.22943374175645,131.56827142131905,62.86761098963824,0.0,0,0.0,,,,,,
39.999018010598924,1.3331773473332655,110.22943374175645,131.56827142131905,64.47444553682683,0.0,0,0.0,,,,,,
40.999018010598924,1.3484964763143135,111.22943374175645,131.56827142131905,66.08128008401543,0.0,0,0.0,,,,,,
41.999018010598924,1.3634475793245184,112.22943374175645,131.56827142131905,67.68811463120403,0.0,0,0.0,,,,,,
42.999018010598924,1.378047924391847,113.22943374175645,131.56827142131905,69.29494917839263,0.0,0,0.0,,,,,,
43.999018010598924,1.3923135920616485,114.22943374175645,131.56827142131905,70.90178372558123,0.0,0,0.0,,,,,,
44.999018010598924,1.4062595818373622,115.22943374175645,131.56827142131905,72.50861827276982,0.0,0,0.0,,,,,,
45.999018010598924,1.4198999069565246,116.22943374175645,131.56827142131905,74.11545281995842,0.0,0,0.0,,,,,,
46.999018010598924,1.433247679003157,117.22943374175645,131.56827142131905,75.72228736714702,0.0,0,0.0,,,,,,
47.999018010598924,1.446315183636987,118.22943374175645,131.56827142131905,77.32912191433562,0.0,0,0.0,,,,,,
48.999018010598924,1.4591139485356257,119.22943374175645,131.56827142131905,78.93595646152421,0.0,0,0.0,,,,,,
49.999018010598924,1.4716548044912021,120.22943374175645,131.56827142131905,80.54279100871281,0.0,0,0.0,,,,,,
50.999018010598924,1.483947940472778,121.22943374175645,131.56827142131905,82.14962555590141,0.0,0,0.0,,,,,,
51.999018010598924,1.496002953355855,122.22943374175645,131.56827142131905,83.75646010309,0.0,0,0.0,,,,,,
52.999018010598924,1.5079249979601042,123.22943374175645,131.56827142131905,84.0,0.0,0,0.0,,,,,,
53.999018010598924,1.519829759864866,124.22943374175645,131.56827142131905,84.0,0.0,0,0.0,,,,,,
54.999018010598924,1.5317345217696279,125.22943374175645,131.56827142131905,84.0,0.0,0,0.0,,,,,,
55.999018010598924,1.5436392836743897,126.22943374175645,131.56827142131905,84.0,0.0,0,0.0,,,,,,
56.999018010598924,1.5555440455791516,127.22943374175645,131.56827142131905,84.0,0.0,0,0.0,,,,,,
57.999018010598924,1.5674488074839135,128.22943374175645,131.56827142131905,84.0,0.0,0,0.0,,,,,,
58.999018010598924,1.5793535693886753,129.22943374175645,131.56827142131905,84.0,0.0,0,0.0,,,,,,
59.999018010598924,1.5912583312934372,130.22943374175645,131.56827142131905,84.0,0.0,0,-0.0,,,,,,
60.999018010598924,1.603163093198199,131.22943374175645,131.56827142131905,84.0,0.0,0,-0.0,,,,,,
61.999018010598924,1.615067855102961,132.22943374175645,131.56827142131905,84.0,0.0,0,-0.0,,,,,,
62.999018010598924,1.6269726170077228,133.22943374175645,131.56827142131905,84.0,0.0,0,-0.0,,,,,,
63.999018010598924,1.6388773789124846,134.22943374175645,131.56827142131905,84.0,0.0,0,-0.0,,,,,,
64.99901801059892,1.6507821408172465,135.22943374175645,131.56827142131905,84.0,0.0,0,-0.0,,,,,,
65.99901801059892,1.6626869027220084,136.22943374175645,131.56827142131905,84.0,0.0,0,-0.0,,,,,,
66.99901801059892,1.6745916646267702,137.22943374175645,131.56827142131905,84.0,0.0,0,-0.0,,,,,,
67.99901801059892,1.686496426531532,138.22943374175645,131.56827142131905,84.0,0.0,0,-0.0,,,,,,
68.99901801059892,1.698401188436294,139.22943374175645,131.56827142131905,84.0,0.0,0,-0.0,,,,,,
69.99901801059892,1.7103059503410558,140.22943374175645,131.56827142131905,84.0,0.0,0,-0.0,,,,,,
70.99901801059892,1.7222107122458177,141.22943374175645,131.56827142131905,84.0,0.0,0,-0.0,,,,,,
71.99901801059892,1.7341154741505795,142.22943374175645,131.56827142131905,84.0,0.0,0,-0.0,,,,,,
72.99901801059892,1.7460202360553414,143.22943374175645,131.56827142131905,84.0,0.0,0,-0.0,,,,,,
73.99901801059892,1.7579249979601033,144.22943374175645,131.56827142131905,84.0,0.0,0,-0.0,,,,,,
74.99901801059892,1.7698297598648651,145.22943374175645,131.56827142131905,84.0,0.0,0,-0.0,,,,,,
75.99901801059892,1.781734521769627,146.22943374175645,131.56827142131905,84.0,0.0,0,-0.0,,,,,,
76.99901801059892,1.7936392836743889,147.22943374175645,131.56827142131905,84.0,0.0,0,-0.0,,,,,,
77.99901801059892,1.8055440455791507,148.22943374175645,131.56827142131905,84.0,0.0,0,-0.0,,,,,,
78.99901801059892,1.8174488074839126,149.22943374175645,131.56827142131905,84.0,0.0,0,-0.0,,,,,,
79.99901801059892,1.8293535693886744,150.22943374175645,131.56827142131905,84.0,0.0,0,-0.0,,,,,,
80.99901801059892,1.8412583312934363,151.22943374175645,131.56827142131905,84.0,0.0,0,-0.0,,,,,,
81.99901801059892,1.8531630931981982,152.22943374175645,131.56827142131905,84.0,0.0,0,-0.0,,,,,,
82.99901801059892,1.86506785510296,153.22943374175645,131.56827142131905,84.0,0.0,0,-0.0,,,,,,
83.99901801059892,1.8769726170077219,154.22943374175645,131.56827142131905,84.0,0.0,0,-0.0,,,,,,
84.99901801059892,1.8888773789124838,155.22943374175645,131.56827142131905,84.0,0.0,0,-0.0,,,,,,
85.99901801059892,1.9007821408172456,156.22943374175645,131.56827142131905,84.0,0.0,0,-0.0,,,,,,
86.99901801059892,1.9126869027220075,157.22943374175645,131.56827142131905,84.0,0.0,0,-0.0,,,,,,
87.99901801059892,1.9245916646267693,158.22943374175645,131.56827142131905,84.0,0.0,0,-0.0,,,,,,
88.99901801059892,1.9364964265315312,159.22943374175645,131.56827142131905,84.0,0.0,0,-0.0,,,,,,
89.99901801059892,1.948401188436293,160.22943374175645,131.56827142131905,84.0,0.0,0,-0.0,,,,,,
90.99901801059892,1.960305950341055,161.22943374175645,131.56827142131905,84.0,0.0,0,-0.0,,,,,,
91.99901801059892,1.9722107122458168,162.22943374175645,131.56827142131905,84.0,0.0,0,0.0,,,,,,
92.99901801059892,1.9841154741505787,163.22943374175645,131.56827142131905,84.0,0.0,0,0.0,,,,,,
93.99901801059892,1.9960202360553405,164.22943374175645,131.56827142131905,84.0,0.0,0,0.0,,,,,,
94.99901801059892,2.0079249979601026,165.22943374175645,131.56827142131905,84.0,0.0,0,0.0,,,,,,
95.99901801059892,2.0198297598648645,166.22943374175645,131.56827142131905,84.0,0.0,0,0.0,,,,,,
96.99901801059892,2.0317345217696263,167.22943374175645,131.56827142131905,84.0,0.0,0,0.0,,,,,,
97.99901801059892,2.043639283674388,168.22943374175645,131.56827142131905,84.0,0.0,0,0.0,,,,,,
98.99901801059892,2.05554404557915,169.22943374175645,131.56827142131905,84.0,0.0,0,0.0,,,,,,
99.99901801059892,2.067448807483912,170.22943374175645,131.56827142131905,84.0,0.0,0,0.0,,,,,,
100.99901801059892,2.0793535693886738,171.22943374175645,131.56827142131905,84.0,0.0,0,0.0,,,,,,
101.99901801059892,2.0912583312934356,172.22943374175645,131.56827142131905,84.0,0.0,0,0.0,,,,,,
102.99901801059892,2.1031630931981975,173.22943374175645,131.56827142131905,84.0,0.0,0,0.0,,,,,,
103.99901801059892,2.1150678551029594,174.22943374175645,131.56827142131905,84.0,0.0,0,0.0,,,,,,
104.99901801059892,2.1269726170077212,175.22943374175645,131.56827142131905,84.0,0.0,0,0.0,,,,,,
105.99901801059892,2.138877378912483,176.22943374175645,131.56827142131905,84.0,0.0,0,0.0,,,,,,
106.99901801059892,2.150782140817245,177.22943374175645,131.56827142131905,84.0,0.0,0,0.0,,,,,,
107.99901801059892,2.162686902722007,178.22943374175645,131.56827142131905,84.0,0.0,0,0.0,,,,,,
108.99901801059892,2.1745916646267687,179.22943374175645,131.56827142131905,84.0,0.0,0,0.0,,,,,,
109.99901801059892,2.1864964265315305,180.22943374175645,131.56827142131905,84.0,0.0,0,0.0,,,,,,
110.99901801059892,2.1984011884362924,181.22943374175645,131.56827142131905,84.0,0.0,0,0.0,,,,,,
111.99901801059892,2.2103059503410543,182.22943374175645,131.56827142131905,84.0,0.0,0,0.0,,,,,,
112.99901801059892,2.222210712245816,183.22943374175645,131.56827142131905,84.0,0.0,0,0.0,,,,,,
113.99901801059892,2.234115474150578,184.22943374175645,131.56827142131905,84.0,0.0,0,0.0,,,,,,
114.99901801059892,2.24602023605534,185.22943374175645,131.56827142131905,84.0,0.0,0,0.0,,,,,,
115.99901801059892,2.2579249979601017,186.22943374175645,131.56827142131905,84.0,0.0,0,0.0,,,,,,
116.99901801059892,2.2698297598648636,187.22943374175645,131.56827142131905,84.0,0.0,0,0.0,,,,,,
117.99901801059892,2.2817345217696254,188.22943374175645,131.56827142131905,84.0,0.0,0,0.0,,,,,,
118.99901801059892,2.2936392836743873,189.22943374175645,131.56827142131905,84.0,0.0,0,0.0,,,,,,
119.99901801059892,2.305544045579149,190.22943374175645,131.56827142131905,84.0,0.0,0,0.0,,,,,,
120.99901801059892,2.317448807483911,191.22943374175645,131.56827142131905,84.0,0.0,0,0.0,,,,,,
121.99901801059892,2.329353569388673,192.22943374175645,131.56827142131905,84.0,0.0,0,0.0,,,,,,
122.99901801059892,2.3412583312934347,193.22943374175645,131.56827142131905,84.0,0.0,0,0.0,,,,,,
123.99901801059892,2.3531630931981966,194.22943374175645,131.56827142131905,84.0,0.0,0,0.0,,,,,,
124.99901801059892,2.3650678551029585,195.22943374175645,131.56827142131905,84.0,0.0,0,0.0,,,,,,
125.99901801059892,2.3769726170077203,196.22943374175645,131.56827142131905,84.0,0.0,0,0.0,,,,,,
126.99901801059892,2.388877378912482,197.22943374175645,131.56827142131905,84.0,0.0,0,0.0,,,,,,
127.99901801059892,2.400782140817244,198.22943374175645,131.56827142131905,84.0,0.0,0,0.0,,,,,,
128.99901801059892,2.412686902722006,199.22943374175645,131.56827142131905,84.0,0.0,0,0.0,,,,,,
129.77023721487782,2.421905141184663,200.0,131.6,83.3246374354752,0.0,0,0.0,,,,,,
130.77023721487782,2.4339697907765476,200.99733372359157,131.67297563831158,82.44892977573626,0.0,0,0.0,,,,,,
131.77023721487782,2.4461632657244934,201.99466744718313,131.74595127662317,81.57322211599732,0.0,0,0.0,,,,,,
132.77023721487782,2.4584883468959187,202.9920011707747,131.81892691493476,80.69751445625839,0.0,0,0.0,,,,,,
133.77023721487782,2.4709479061838033,203.98933489436627,131.89190255324635,79.82180679651945,0.0,0,0.0,,,,,,
134.77023721487782,2.483544910523208,204.98666861795783,131.96487819155794,78.94609913678052,0.0,0,0.0,,,,,,
135.77023721487782,2.496282426131801,205.9840023415494,132.03785382986953,78.07039147704158,0.0,0,0.0,,,,,,
136.77023721487782,2.509163622989552,206.98133606514097,132.11082946818112,77.19468381730265,0.0,0,0.0,,,,,,
137.77023721487782,2.5221917795739723,207.97866978873253,132.1838051064927,76.31897615756371,0.0,0,0.0,,,,,,
138.77023721487782,2.5353702878685844,208.9760035123241,132.2567807448043,75.44326849782477,0.0,0,0.0,,,,,,
139.77023721487782,2.5487026586637724,209.97333723591566,132.3297563831159,74.56756083808584,0.0,0,0.0,,,,,,
140.77023721487782,2.5621925271707284,210.97067095950723,132.40273202142748,73.6918531783469,0.0,0,0.0,,,,,,
141.77023721487782,2.575843658970958,211.9680046830988,132.47570765973907,72.81614551860797,0.0,0,0.0,,,,,,
142.77023721487782,2.589659956325702,212.96533840669036,132.54868329805066,71.94043785886903,0.0,0,0.0,,,,,,
143.77023721487782,2.603645464871721,213.96267213028193,132.62165893636225,71.0647301991301,0.0,0,0.0,,,,,,
144.77023721487782,2.6178043807321885,214.9600058538735,132.69463457467384,70.18902253939116,0.0,0,0.0,,,,,,
145.77023721487782,2.6321410580739615,215.95733957746506,132.76761021298543,69.31331487965222,0.0,0,0.0,,,,,,
146.77023721487782,2.64666001714528,216.95467330105663,132.84058585129702,68.43760721991329,0.0,0,0.0,,,,,,
147.77023721487782,2.6613659528310176,217.9520070246482,132.9135614896086,67.56189956017435,0.0,0,0.0,,,,,,
148.77023721487782,2.676263743765996,218.94934074823976,132.9865371279202,66.68619190043542,0.0,0,0.0,,,,,,
149.77023721487782,2.691358462050624,219.94667447183133,133.0595127662318,65.81048424069648,0.0,0,0.0,,,,,,
150.77023721487782,2.706655383617274,220.9440081954229,133.13248840454338,64.93477658095755,0.0,0,0.0,,,,,,
151.77023721487782,2.7221599993004015,221.94134191901446,133.20546404285497,64.05906892121861,0.0,0,0.0,,,,,,
152.77023721487782,2.737878026668539,222.93867564260603,133.27843968116656,63.183361261479675,0.0,0,0.0,,,,,,
153.77023721487782,2.7538154226819502,223.9360093661976,133.35141531947815,62.30765360174074,0.0,0,0.0,,,,,,
154.77023721487782,2.769978397246071,224.93334308978916,133.42439095778974,61.4319459420018,0.0,0,0.0,,,,,,
155.77023721487782,2.786373427737903,225.93067681338073,133.49736659610133,60.55623828226287,0.0,0,0.0,,,,,,
156.77023721487782,2.803007274590389,226.9280105369723,133.57034223441292,59.68053062252393,0.0,0,0.0,,,,,,
157.77023721487782,2.8198869980286116,227.92534426056386,133.6433178727245,58.804822962784996,0.0,0,0.0,,,,,,
158.77023721487782,2.8370199760614914,228.92267798415543,133.7162935110361,57.92911530304606,0.0,0,0.0,,,,,,
159.77023721487782,2.8544139238437394,229.920011707747,133.7892691493477,57.053407643307125,0.0,0,0.0,,,,,,
160.77023721487782,2.8720769145352243,230.91734543133856,133.86224478765928,56.17769998356819,0.0,0,0.0,,,,,,
161.77023721487782,2.890017401798906,231.91467915493013,133.93522042597087,55.30199232382925,0.0,0,0.0,,,,,,
162.77023721487782,2.9082442440942624,232.9120128785217,134.00819606428246,54.42628466409032,0.0,0,0.0,,,,,,
163.77023721487782,2.926766730940947,233.90934660211326,134.08117170259405,53.55057700435138,0.0,0,0.0,,,,,,
164.77023721487782,2.945594611347585,234.90668032570483,134.15414734090564,52.674869344612446,0.0,0,0.0,,,,,,
165.77023721487782,2.964738124623487,235.9040140492964,134.22712297921723,51.79916168487351,0.0,0,0.0,,,,,,
166.77023721487782,2.9842080338170587,236.90134777288796,134.30009861752882,50.923454025134575,0.0,0,0.0,,,,,,
167.77023721487782,3.004015662054264,237.89868149647953,134.3730742558404,50.04774636539564,0.0,0,0.0,,,,,,
168.77023721487782,3.0241729320843067,238.8960152200711,134.446049894152,49.1720387056567,0.0,0,0.0,,,,,,
169.77023721487782,3.0446924093783,239.89334894366266,134.5190255324636,48.29633104591777,0.0,0,0.0,,,,,,
170.77023721487782,3.065587349171008,240.89068266725423,134.59200117077518,47.42062338617883,0.0,0,0.0,,,,,,
171.77023721487782,3.0868717478866157,241.8880163908458,134.66497680908677,46.544915726439896,0.0,0,0.0,,,,,,
172.77023721487782,3.1085603994481326,242.88535011443736,134.73795244739836,45.66920806670096,0.0,0,0.0,,,,,,
173.77023721487782,3.1306689570377197,243.88268383802892,134.81092808570995,44.793500406962025,0.0,0,0.0,,,,,,
174.77023721487782,3.1532140009536493,244.8800175616205,134.88390372402154,43.91779274722309,0.0,0,0.0,,,,,,
175.77023721487782,3.176213113300628,245.87735128521206,134.95687936233313,43.04208508748415,0.0,0,0.0,,,,,,
176.77023721487782,3.1996849603562247,246.87468500880362,135.02985500064472,42.16637742774522,0.0,0,-0.0,,,,,,
177.77023721487782,3.223649383579933,247.8720187323952,135.1028306389563,41.29066976800628,0.0,0,-0.0,,,,,,
178.77023721487782,3.2481275003764423,248.86935245598676,135.1758062772679,40.414962108267346,0.0,0,-0.0,,,,,,
179.77023721487782,3.2731418158951153,249.86668617957832,135.24878191557949,39.53925444852841,0.0,0,-0.0,,,,,,
180.77023721487782,3.298716347348672,250.8640199031699,135.32175755389108,38.663546788789475,0.0,0,-0.0,,,,,,
181.77023721487782,3.3248767625718743,251.86135362676146,135.39473319220266,37.78783912905054,0.0,0,-0.0,,,,,,
182.77023721487782,3.3516505348234507,252.85868735035302,135.46770883051425,36.9121314693116,0.0,0,-0.0,,,,,,
183.77023721487782,3.3790671161711407,253.8560210739446,135.54068446882584,36.03642380957267,0.0,0,-0.0,,,,,,
184.77023721487782,3.407158132202688,254.85335479753616,135.61366010713743,35.16071614983373,0.0,0,-0.0,,,,,,
185.77023721487782,3.435957601289804,255.85068852112772,135.68663574544902,34.285008490094796,0.0,0,-0.0,,,,,,
186.77023721487782,3.465502182216576,256.8480222447193,135.7596113837606,33.40930083035586,0.0,0,-0.0,,,,,,
187.77023721487782,3.495831454692402,257.84535596831086,135.8325870220722,32.533593170616925,0.0,0,-0.0,,,,,,
188.77023721487782,3.526988238132827,258.8426896919024,135.9055626603838,31.65788551087799,0.0,0,-0.0,,,,,,
