Distance (in),Time (s),X (in),Y (in),Velocity (in/s),Orientation (deg),Touch,Rotational Velocity (deg/s),Way X (in),Way Y (in),Way Velocity (in/s),Way Orientation (deg),Way Turn Radius (in),Touch this Point
0.0,0.0,74.0,116.60000000000002,12.0,0.0,0,0.0,74.0,116.60000000000002,12.0,0.0,3.0,0
1.0000000000000033,0.07936500814488544,74.8661855860486,117.0997224534896,13.200022613856353,0.0,0,0.0,100.0,131.60000000000002,48.0,0.0,20.0,0
2.0000000000000067,0.15182859814330435,75.7323711720972,117.59944490697919,14.400045227712706,0.0,0,0.0,200.0,131.60000000000002,84.0,0.0,3.0,0
3.0000000000000098,0.21849501354584763,76.5985567581458,118.09916736046877,15.600067841569059,0.0,0,0.0,282.0,131.60000000000002,12.0,0.0,3.0,0
4.000000000000013,0.28022310702203085,77.4647423441944,118.59888981395835,16.800090455425412,0.0,0,0.0,,,,,,
5.000000000000017,0.33769403527623093,78.330927930243,119.09861226744793,18.000113069281767,0.0,0,0.0,,,,,,
6.00000000000002,0.3914571166284734,79.19711351629161,119.59833472093752,19.20013568313812,0.0,0,0.0,,,,,,
7.000000000000024,0.4419617921999074,80.06329910234021,120.0980571744271,20.400158296994476,0.0,0,-0.0,,,,,,
8.000000000000027,0.4895804552326674,80.92948468838881,120.59777962791668,21.600180910850828,0.0,0,-0.0,,,,,,
9.00000000000003,0.5346251102604358,81.79567027443741,121.09750208140626,22.800203524707182,0.0,0,-0.0,,,,,,
10.000000000000034,0.5773597606555286,82.66185586048601,121.59722453489584,24.000226138563537,0.0,0,-0.0,,,,,,
11.000000000000037,0.6180097747952606,83.52804144653462,122.09694698838543,25.200248752419892,0.0,0,-0.0,,,,,,
12.00000000000004,0.6567690740309937,84.39422703258322,122.59666944187501,26.400271366276247,0.0,0,-0.0,,,,,,
13.000000000000044,0.6938057233173518,85.26041261863182,123.09639189536459,27.6002939801326,0.0,0,-0.0,,,,,,
14.000000000000048,0.72926633233632,86.12659820468042,123.59611434885417,28.800316593988956,0.0,0,-0.0,,,,,,
15.000000000000052,0.7632795584258429,86.99278379072902,124.09583680234375,30.00033920784531,0.0,0,0.0,,,,,,
16.000000000000053,0.7959589226546028,87.85896937677762,124.59555925583334,31.200361821701662,0.0,0,0.0,,,,,,
17.000000000000057,0.8274050945581553,88.72515496282622,125.09528170932292,32.40038443555802,0.0,0,0.0,,,,,,
18.00000000000006,0.8577077614656481,89.59134054887483,125.5950041628125,33.60040704941437,0.0,0,0.0,,,,,,
19.000000000000064,0.886947169872316,90.45752613492343,126.09472661630208,34.80042966327073,0.0,0,0.0,,,,,,
20.000000000000068,0.9151954055607311,91.32371172097203,126.59444906979166,36.00045227712708,0.0,0,0.0,,,,,,
21.00000000000007,0.9425174638648135,92.18989730702063,127.09417152328125,37.200474890983436,0.0,0,0.0,,,,,,
22.000000000000075,0.9689721500496502,93.05608289306923,127.59389397677083,38.40049750483979,0.0,0,0.0,,,,,,
23.00000000000007,0.9946128411705378,93.92226847911783,128.0936164302604,39.60052011869614,0.0,0,0.0,,,,,,
24.000000000000068,1.0194881342210815,94.78845406516643,128.59333888374996,40.800542732552486,0.0,0,0.0,,,,,,
24.999955481302486,1.0436413406135023,95.65603197318904,129.09055064758692,42.000511922964996,0.0,0,0.0,,,,,,
25.999851317890965,1.0671128200162743,96.54231703570284,129.5534658363547,43.200409538371986,0.0,0,0.0,,,,,,
26.999747154479458,1.0899413053151414,97.45063058925005,129.97150671051585,44.40030715377899,0.0,0,0.0,,,,,,
27.999642991067947,1.1121610864080387,98.37870232298738,130.34362838559645,45.60020476918599,0.0,0,0.0,,,,,,
28.999538827656448,1.1338037814896558,99.32421254091089,130.66890075120602,46.800102384593,0.0,0,0.0,,,,,,
29.999434664244944,1.1548084803350724,100.28479795988797,130.94651079582914,48.40676955841345,0.0,0,0.0,,,,,,
30.999330500833434,1.1751273939865166,101.25805761663439,131.1757646389307,50.013436732233885,0.0,0,0.0,,,,,,
31.999226337421927,1.1948038872053666,102.24155886887212,131.3560892652961,51.620103906054325,0.0,0,0.0,,,,,,
32.999122174010424,1.2138773376391099,103.23284347566812,131.48703395727065,53.22677107987477,0.0,0,0.0,,,,,,
33.99901801059892,1.2323836100728773,104.22943374175644,131.56827142131908,54.83343825369521,0.0,0,0.0,,,,,,
34.99901801059892,1.2503573073733927,105.22943374175644,131.56827142131908,56.44027280088382,0.0,0,0.0,,,,,,
35.99901801059892,1.2678264816823677,106.22943374175644,131.56827142131908,58.04710734807242,0.0,0,0.0,,,,,,
36.99901801059892,1.2848186836453699,107.22943374175644,131.56827142131908,59.65394189526103,0.0,0,0.0,,,,,,
37.99901801059892,1.3013592671863583,108.22943374175644,131.56827142131908,61.26077644244963,0.0,0,0.0,,,,,,
38.99901801059892,1.3174716169991214,109.22943374175644,131.56827142131908,62.86761098963824,0.0,0,0.0,,,,,,
39.99901801059892,1.3331773473332655,110.22943374175644,131.56827142131908,64.47444553682683,0.0,0,0.0,,,,,,
40.99901801059892,1.3484964763143135,111.22943374175644,131.56827142131908,66.08128008401543,0.0,0,0.0,,,,,,
41.99901801059892,1.3634475793245184,112.22943374175644,131.56827142131908,67.68811463120403,0.0,0,0.0,,,,,,
42.99901801059892,1.378047924391847,113.22943374175644,131.56827142131908,69.29494917839263,0.0,0,0.0,,,,,,
43.99901801059892,1.3923135920616485,114.22943374175644,131.56827142131908,70.90178372558123,0.0,0,0.0,,,,,,
44.99901801059892,1.4062595818373622,115.22943374175644,131.56827142131908,72.50861827276982,0.0,0,0.0,,,,,,
45.99901801059892,1.4198999069565246,116.22943374175644,131.56827142131908,74.11545281995842,0.0,0,0.0,,,,,,
46.99901801059892,1.433247679003157,117.22943374175644,131.56827142131908,75.72228736714702,0.0,0,0.0,,,,,,
47.99901801059892,1.446315183636987,118.22943374175644,131.56827142131908,77.32912191433562,0.0,0,0.0,,,,,,
48.99901801059892,1.4591139485356257,119.22943374175644,131.56827142131908,78.93595646152421,0.0,0,0.0,,,,,,
49.99901801059892,1.4716548044912021,120.22943374175644,131.56827142131908,80.54279100871281,0.0,0,0.0,,,,,,
50.99901801059892,1.483947940472778,121.22943374175644,131.56827142131908,82.14962555590141,0.0,0,0.0,,,,,,
51.99901801059892,1.496002953355855,122.22943374175644,131.56827142131908,83.75646010309,0.0,0,0.0,,,,,,
52.99901801059892,1.5079249979601042,123.22943374175644,131.56827142131908,84.0,0.0,0,0.0,,,,,,
53.99901801059892,1.519829759864866,124.22943374175644,131.56827142131908,84.0,0.0,0,0.0,,,,,,
54.99901801059892,1.5317345217696279,125.22943374175644,131.56827142131908,84.0,0.0,0,0.0,,,,,,
55.99901801059892,1.5436392836743897,126.22943374175644,131.56827142131908,84.0,0.0,0,0.0,,,,,,
56.99901801059892,1.5555440455791516,127.22943374175644,131.56827142131908,84.0,0.0,0,0.0,,,,,,
57.99901801059893,1.5674488074839137,128.22943374175645,131.56827142131908,84.0,0.0,0,0.0,,,,,,
58.99901801059893,1.5793535693886755,129.22943374175645,131.56827142131908,84.0,0.0,0,0.0,,,,,,
59.99901801059893,1.5912583312934374,130.22943374175645,131.56827142131908,84.0,0.0,0,-0.0,,,,,,
60.99901801059893,1.6031630931981993,131.22943374175645,131.56827142131908,84.0,0.0,0,-0.0,,,,,,
61.99901801059893,1.6150678551029611,132.22943374175645,131.56827142131908,84.0,0.0,0,-0.0,,,,,,
62.99901801059893,1.626972617007723,133.22943374175645,131.56827142131908,84.0,0.0,0,-0.0,,,,,,
63.99901801059893,1.6388773789124849,134.22943374175645,131.56827142131908,84.0,0.0,0,-0.0,,,,,,
64.99901801059893,1.6507821408172467,135.22943374175645,131.56827142131908,84.0,0.0,0,-0.0,,,,,,
65.99901801059893,1.6626869027220086,136.22943374175645,131.56827142131908,84.0,0.0,0,-0.0,,,,,,
66.99901801059893,1.6745916646267704,137.22943374175645,131.56827142131908,84.0,0.0,0,-0.0,,,,,,
67.99901801059893,1.6864964265315323,138.22943374175645,131.56827142131908,84.0,0.0,0,-0.0,,,,,,
68.99901801059893,1.6984011884362942,139.22943374175645,131.56827142131908,84.0,0.0,0,-0.0,,,,,,
69.99901801059893,1.710305950341056,140.22943374175645,131.56827142131908,84.0,0.0,0,-0.0,,,,,,
70.99901801059893,1.722210712245818,141.22943374175645,131.56827142131908,84.0,0.0,0,-0.0,,,,,,
71.99901801059893,1.7341154741505798,142.22943374175645,131.56827142131908,84.0,0.0,0,-0.0,,,,,,
72.99901801059893,1.7460202360553416,143.22943374175645,131.56827142131908,84.0,0.0,0,-0.0,,,,,,
73.99901801059893,1.7579249979601035,144.22943374175645,131.56827142131908,84.0,0.0,0,-0.0,,,,,,
74.99901801059893,1.7698297598648653,145.22943374175645,131.56827142131908,84.0,0.0,0,-0.0,,,,,,
75.99901801059893,1.7817345217696272,146.22943374175645,131.56827142131908,84.0,0.0,0,-0.0,,,,,,
76.99901801059893,1.793639283674389,147.22943374175645,131.56827142131908,84.0,0.0,0,-0.0,,,,,,
77.99901801059893,1.805544045579151,148.22943374175645,131.56827142131908,84.0,0.0,0,-0.0,,,,,,
78.99901801059893,1.8174488074839128,149.22943374175645,131.56827142131908,84.0,0.0,0,-0.0,,,,,,
79.99901801059893,1.8293535693886747,150.22943374175645,131.56827142131908,84.0,0.0,0,-0.0,,,,,,
80.99901801059893,1.8412583312934365,151.22943374175645,131.56827142131908,84.0,0.0,0,-0.0,,,,,,
81.99901801059893,1.8531630931981984,152.22943374175645,131.56827142131908,84.0,0.0,0,-0.0,,,,,,
82.99901801059893,1.8650678551029602,153.22943374175645,131.56827142131908,84.0,0.0,0,-0.0,,,,,,
83.99901801059893,1.876972617007722,154.22943374175645,131.56827142131908,84.0,0.0,0,-0.0,,,,,,
84.99901801059893,1.888877378912484,155.22943374175645,131.56827142131908,84.0,0.0,0,-0.0,,,,,,
85.99901801059893,1.9007821408172458,156.22943374175645,131.56827142131908,84.0,0.0,0,-0.0,,,,,,
86.99901801059893,1.9126869027220077,157.22943374175645,131.56827142131908,84.0,0.0,0,-0.0,,,,,,
87.99901801059893,1.9245916646267696,158.22943374175645,131.56827142131908,84.0,0.0,0,-0.0,,,,,,
88.99901801059893,1.9364964265315314,159.22943374175645,131.56827142131908,84.0,0.0,0,-0.0,,,,,,
89.99901801059893,1.9484011884362933,160.22943374175645,131.56827142131908,84.0,0.0,0,-0.0,,,,,,
90.99901801059893,1.9603059503410551,161.22943374175645,131.56827142131908,84.0,0.0,0,-0.0,,,,,,
91.99901801059893,1.972210712245817,162.22943374175645,131.56827142131908,84.0,0.0,0,0.0,,,,,,
92.99901801059893,1.9841154741505789,163.22943374175645,131.56827142131908,84.0,0.0,0,0.0,,,,,,
93.99901801059893,1.9960202360553407,164.22943374175645,131.56827142131908,84.0,0.0,0,0.0,,,,,,
94.99901801059893,2.0079249979601026,165.22943374175645,131.56827142131908,84.0,0.0,0,0.0,,,,,,
95.99901801059893,2.0198297598648645,166.22943374175645,131.56827142131908,84.0,0.0,0,0.0,,,,,,
96.99901801059893,2.0317345217696263,167.22943374175645,131.56827142131908,84.0,0.0,0,0.0,,,,,,
97.99901801059893,2.043639283674388,168.22943374175645,131.56827142131908,84.0,0.0,0,0.0,,,,,,
98.99901801059893,2.05554404557915,169.22943374175645,131.56827142131908,84.0,0.0,0,0.0,,,,,,
99.99901801059893,2.067448807483912,170.22943374175645,131.56827142131908,84.0,0.0,0,0.0,,,,,,
100.99901801059893,2.0793535693886738,171.22943374175645,131.56827142131908,84.0,0.0,0,0.0,,,,,,
101.99901801059893,2.0912583312934356,172.22943374175645,131.56827142131908,84.0,0.0,0,0.0,,,,,,
102.99901801059893,2.1031630931981975,173.22943374175645,131.56827142131908,84.0,0.0,0,0.0,,,,,,
103.99901801059893,2.1150678551029594,174.22943374175645,131.56827142131908,84.0,0.0,0,0.0,,,,,,
104.99901801059893,2.1269726170077212,175.22943374175645,131.56827142131908,84.0,0.0,0,0.0,,,,,,
105.99901801059893,2.138877378912483,176.22943374175645,131.56827142131908,84.0,0.0,0,0.0,,,,,,
106.99901801059893,2.150782140817245,177.22943374175645,131.56827142131908,84.0,0.0,0,0.0,,,,,,
107.99901801059893,2.162686902722007,178.22943374175645,131.56827142131908,84.0,0.0,0,0.0,,,,,,
108.99901801059893,2.1745916646267687,179.22943374175645,131.56827142131908,84.0,0.0,0,0.0,,,,,,
109.99901801059893,2.1864964265315305,180.22943374175645,131.56827142131908,84.0,0.0,0,0.0,,,,,,
110.99901801059893,2.1984011884362924,181.22943374175645,131.56827142131908,84.0,0.0,0,0.0,,,,,,
111.99901801059893,2.2103059503410543,182.22943374175645,131.56827142131908,84.0,0.0,0,0.0,,,,,,
112.99901801059893,2.222210712245816,183.22943374175645,131.56827142131908,84.0,0.0,0,0.0,,,,,,
113.99901801059893,2.234115474150578,184.22943374175645,131.56827142131908,84.0,0.0,0,0.0,,,,,,
114.99901801059893,2.24602023605534,185.22943374175645,131.56827142131908,84.0,0.0,0,0.0,,,,,,
115.99901801059893,2.2579249979601017,186.22943374175645,131.56827142131908,84.0,0.0,0,0.0,,,,,,
116.99901801059893,2.2698297598648636,187.22943374175645,131.56827142131908,84.0,0.0,0,0.0,,,,,,
117.99901801059893,2.2817345217696254,188.22943374175645,131.56827142131908,84.0,0.0,0,0.0,,,,,,
118.99901801059893,2.2936392836743873,189.22943374175645,131.56827142131908,84.0,0.0,0,0.0,,,,,,
119.99901801059893,2.305544045579149,190.22943374175645,131.56827142131908,84.0,0.0,0,0.0,,,,,,
120.99901801059893,2.317448807483911,191.22943374175645,131.56827142131908,84.0,0.0,0,0.0,,,,,,
121.99901801059893,2.329353569388673,192.22943374175645,131.56827142131908,84.0,0.0,0,0.0,,,,,,
122.99901801059893,2.3412583312934347,193.22943374175645,131.56827142131908,84.0,0.0,0,0.0,,,,,,
123.99901801059893,2.3531630931981966,194.22943374175645,131.56827142131908,84.0,0.0,0,0.0,,,,,,
124.99901801059893,2.3650678551029585,195.22943374175645,131.56827142131908,84.0,0.0,0,0.0,,,,,,
125.99901801059893,2.3769726170077203,196.22943374175645,131.56827142131908,84.0,0.0,0,0.0,,,,,,
126.99901801059893,2.388877378912482,197.22943374175645,131.56827142131908,84.0,0.0,0,0.0,,,,,,
127.99901801059893,2.400782140817244,198.22943374175645,131.56827142131908,84.0,0.0,0,0.0,,,,,,
128.99901801059895,2.412686902722006,199.22943374175645,131.56827142131908,84.0,0.0,0,0.0,,,,,,
129.77023721487785,2.4219052406551813,200.0,131.60000000000002,83.32283191819413,0.0,0,0.0,,,,,,
130.77023721487785,2.433970323447894,201.0,131.60000000000002,82.44478313770632,0.0,0,0.0,,,,,,
131.77023721487785,2.4461645890125787,202.0,131.60000000000002,81.56673435721852,0.0,0,0.0,,,,,,
132.77023721487785,2.4584908336509037,203.0,131.60000000000002,80.68868557673072,0.0,0,0.0,,,,,,
133.77023721487785,2.4709519454514406,204.0,131.60000000000002,79.81063679624292,0.0,0,0.0,,,,,,
134.77023721487785,2.4835509083512344,205.0,131.60000000000002,78.93258801575512,0.0,0,0.0,,,,,,
135.77023721487785,2.496290806424546,206.0,131.60000000000002,78.05453923526731,0.0,0,0.0,,,,,,
136.77023721487785,2.5091748284141793,207.0,131.60000000000002,77.17649045477951,0.0,0,0.0,,,,,,
137.77023721487785,2.522206272522055,208.0,131.60000000000002,76.29844167429171,0.0,0,0.0,,,,,,
138.77023721487785,2.535388551477028,209.0,131.60000000000002,75.4203928938039,0.0,0,0.0,,,,,,
139.77023721487785,2.5487251978994325,210.0,131.60000000000002,74.5423441133161,0.0,0,0.0,,,,,,
140.77023721487785,2.5622198699834504,211.0,131.60000000000002,73.6642953328283,0.0,0,0.0,,,,,,
141.77023721487785,2.5758763575201655,212.0,131.60000000000002,72.7862465523405,0.0,0,0.0,,,,,,
142.77023721487785,2.589698588286116,213.0,131.60000000000002,71.9081977718527,0.0,0,0.0,,,,,,
143.77023721487785,2.603690634824286,214.0,131.60000000000002,71.0301489913649,0.0,0,0.0,,,,,,
144.77023721487785,2.617856721646823,215.0,131.60000000000002,70.1521002108771,0.0,0,0.0,,,,,,
145.77023721487785,2.6322012328913553,216.0,131.60000000000002,69.27405143038929,0.0,0,0.0,,,,,,
146.77023721487785,2.646728720465622,217.0,131.60000000000002,68.39600264990149,0.0,0,0.0,,,,,,
147.77023721487785,2.6614439127182714,218.0,131.60000000000002,67.51795386941369,0.0,0,0.0,,,,,,
148.77023721487785,2.6763517236771586,219.0,131.60000000000002,66.63990508892589,0.0,0,0.0,,,,,,
149.77023721487785,2.6914572629002933,220.0,131.60000000000002,65.76185630843808,0.0,0,0.0,,,,,,
150.77023721487785,2.7067658459888575,221.0,131.60000000000002,64.88380752795028,0.0,0,0.0,,,,,,
151.77023721487785,2.722283005816414,222.0,131.60000000000002,64.00575874746248,0.0,0,0.0,,,,,,
152.77023721487785,2.7380145045336586,223.0,131.60000000000002,63.12770996697468,0.0,0,0.0,,,,,,
153.77023721487785,2.7539663464138973,224.0,131.60000000000002,62.249661186486875,0.0,0,0.0,,,,,,
154.77023721487785,2.7701447916109023,225.0,131.60000000000002,61.37161240599907,0.0,0,0.0,,,,,,
155.77023721487785,2.7865563709080337,226.0,131.60000000000002,60.49356362551127,0.0,0,0.0,,,,,,
156.77023721487785,2.8032079015455835,227.0,131.60000000000002,59.61551484502347,0.0,0,0.0,,,,,,
157.77023721487785,2.8201065042223368,228.0,131.60000000000002,58.73746606453567,0.0,0,0.0,,,,,,
158.77023721487785,2.8372596213774557,229.0,131.60000000000002,57.859417284047865,0.0,0,0.0,,,,,,
159.77023721487785,2.8546750368701614,230.0,131.60000000000002,56.98136850356006,0.0,0,0.0,,,,,,
160.77023721487785,2.872360897187447,231.0,131.60000000000002,56.10331972307226,0.0,0,0.0,,,,,,
161.77023721487785,2.8903257343244446,232.0,131.60000000000002,55.22527094258446,0.0,0,0.0,,,,,,
162.77023721487785,2.908578490498289,233.0,131.60000000000002,54.34722216209666,0.0,0,0.0,,,,,,
163.77023721487785,2.9271285448746593,234.0,131.60000000000002,53.469173381608854,0.0,0,0.0,,,,,,
164.77023721487785,2.9459857425069504,235.0,131.60000000000002,52.59112460112105,0.0,0,0.0,,,,,,
165.77023721487785,2.9651604257115864,236.0,131.60000000000002,51.71307582063325,0.0,0,0.0,,,,,,
166.77023721487785,2.9846634681297894,237.0,131.60000000000002,50.83502704014545,0.0,0,0.0,,,,,,
167.77023721487785,3.004506311756633,238.0,131.60000000000002,49.956978259657646,0.0,0,0.0,,,,,,
168.77023721487785,3.0247010072530816,239.0,131.60000000000002,49.078929479169844,0.0,0,0.0,,,,,,
169.77023721487785,3.0452602578965964,240.0,131.60000000000002,48.20088069868204,0.0,0,0.0,,,,,,
170.77023721487785,3.0661974675716595,241.0,131.60000000000002,47.32283191819424,0.0,0,0.0,,,,,,
171.77023721487785,3.0875267932541743,242.0,131.60000000000002,46.44478313770644,0.0,0,0.0,,,,,,
172.77023721487785,3.1092632025043567,243.0,131.60000000000002,45.566734357218635,0.0,0,0.0,,,,,,
173.77023721487785,3.131422536552812,244.0,131.60000000000002,44.68868557673083,0.0,0,0.0,,,,,,
174.77023721487785,3.15402157964572,245.0,131.60000000000002,43.81063679624303,0.0,0,0.0,,,,,,
175.77023721487785,3.1770781354094084,246.0,131.60000000000002,42.93258801575523,0.0,0,0.0,,,,,,
176.77023721487785,3.2006111111045707,247.0,131.60000000000002,42.05453923526743,0.0,0,-0.0,,,,,,
177.77023721487785,3.224640610768915,248.0,131.60000000000002,41.176490454779625,0.0,0,-0.0,,,,,,
178.77023721487785,3.2491880383977176,249.0,131.60000000000002,40.29844167429182,0.0,0,-0.0,,,,,,
179.77023721487785,3.2742762124890183,250.0,131.60000000000002,39.42039289380402,0.0,0,-0.0,,,,,,
180.77023721487785,3.2999294934893677,251.0,131.60000000000002,38.54234411331622,0.0,0,-0.0,,,,,,
181.77023721487785,3.326173925923807,252.0,131.60000000000002,37.66429533282842,0.0,0,-0.0,,,,,,
182.77023721487785,3.3530373972882566,253.0,131.60000000000002,36.786246552340614,0.0,0,-0.0,,,,,,
183.77023721487785,3.3805498161339202,254.0,131.60000000000002,35.90819777185281,0.0,0,-0.0,,,,,,
184.77023721487785,3.408743312194319,255.0,131.60000000000002,35.03014899136501,0.0,0,-0.0,,,,,,
185.77023721487785,3.4376524619120934,256.0,131.60000000000002,34.15210021087721,0.0,0,-0.0,,,,,,
186.77023721487785,3.4673145433347554,257.0,131.60000000000002,33.274051430389406,0.0,0,-0.0,,,,,,
187.77023721487785,3.497769825091562,258.0,131.60000000000002,32.396002649901604,0.0,0,-0.0,,,,,,
188.77023721487785,3.5290618950699804,259.0,131.60000000000002,31.517953869413798,0.0,0,-0.0,,,,,,
189.77023721487785,3.5612380355213507,260.0,131.60000000000002,30.639905088925993,0.0,0,-0.0,,,,,,
190.77023721487785,3.5943496526949397,261.0,131.60000000000002,29.761856308438187,0.0,0,-0.0,,,,,,
191.77023721487785,3.6284527707972374,262.0,131.60000000000002,28.88380752795038,0.0,0,-0.0,,,,,,
192.77023721487785,3.663608602190249,263.0,131.60000000000002,28.005758747462576,0.0,0,-0.0,,,,,,
193.77023721487785,3.6998842083988657,264.0,131.60000000000002,27.12770996697477,0.0,0,-0.0,,,,,,
194.77023721487785,3.737353269852828,265.0,131.60000000000002,26.249661186486964,0.0,0,-0.0,,,,,,
195.77023721487785,3.776096986557468,266.0,131.60000000000002,25.37161240599916,0.0,0,-0.0,,,,,,
