Distance (in),Time (s),X (in),Y (in),Velocity (in/s),Orientation (deg),Touch,Rotational Velocity (deg/s),Way X (in),Way Y (in),Way Velocity (in/s),Way Orientation (deg),Way Turn Radius (in),Touch this Point
0.0,0.0,282.0,134.6,12.0,0.0,0,0.0,282.0,134.6,12.0,0.0,3.0,0
0.9999999999999972,0.07432354994540978,281.0032709518853,134.51918413123394,14.909371275577966,0.0,0,0.0,245.0,131.6,120.0,0.0,3.0,0
1.9999999999999944,0.13543309052535907,280.00654190377065,134.4383682624679,17.818742551155932,0.0,0,0.0,130.0,131.60000000000002,120.0,0.0,20.0,0.0
2.9999999999999916,0.187317996012676,279.009812855656,134.35755239370184,20.728113826733896,0.0,0,0.0,83.0,131.60000000000002,12.0,0.0,3.0,0.0
3.999999999999989,0.23239796897097215,278.0130838075413,134.27673652493579,23.637485102311864,0.0,0,0.0,,,,,,
4.999999999999986,0.2722510374981146,277.01635475942663,134.19592065616973,26.546856377889828,0.0,0,0.0,,,,,,
5.999999999999983,0.30796335646397976,276.01962571131196,134.11510478740368,29.456227653467792,0.0,0,-0.0,,,,,,
6.9999999999999805,0.3403143902421648,275.0228966631973,134.03428891863763,32.36559892904576,0.0,0,-0.0,,,,,,
7.999999999999978,0.3698824442312974,274.0261676150826,133.95347304987158,35.27497020462373,0.0,0,-0.0,,,,,,
8.999999999999975,0.3971084003984464,273.02943856696794,133.87265718110552,38.184341480201695,0.0,0,-0.0,,,,,,
9.999999999999972,0.4223360629498851,272.03270951885327,133.79184131233947,41.093712755779656,0.0,0,-0.0,,,,,,
10.999999999999968,0.44583871023522104,271.0359804707386,133.71102544357342,44.003084031357616,0.0,0,-0.0,,,,,,
11.999999999999964,0.4678371498260381,270.0392514226239,133.63020957480737,46.91245530693558,0.0,0,-0.0,,,,,,
12.999999999999961,0.4885123433658594,269.04252237450925,133.54939370604131,49.82182658251354,0.0,0,-0.0,,,,,,
13.999999999999957,0.5080144498216111,268.0457933263946,133.46857783727526,52.7311978580915,0.0,0,-0.0,,,,,,
14.999999999999954,0.5264694409647568,267.0490642782799,133.3877619685092,55.64056913366946,0.0,0,0.0,,,,,,
15.99999999999995,0.5439840313453901,266.0523352301652,133.30694609974316,58.54994040924742,0.0,0,0.0,,,,,,
16.999999999999947,0.5606494130980589,265.05560618205055,133.2261302309771,61.45931168482538,0.0,0,0.0,,,,,,
17.999999999999943,0.5765441271927958,264.0588771339359,133.14531436221105,64.36868296040335,0.0,0,0.0,,,,,,
18.99999999999994,0.5917363001443858,263.0621480858212,133.064498493445,67.27805423598132,0.0,0,0.0,,,,,,
19.999999999999936,0.6062854073360463,262.06541903770653,132.98368262467895,70.18742551155928,0.0,0,0.0,,,,,,
20.999999999999932,0.6202436783020617,261.06868998959186,132.9028667559129,73.09679678713725,0.0,0,0.0,,,,,,
21.99999999999993,0.6336572278046756,260.0719609414772,132.82205088714684,76.00616806271522,0.0,0,0.0,,,,,,
22.999999999999925,0.6465669744990047,259.0752318933625,132.7412350183808,78.91553933829319,0.0,0,0.0,,,,,,
23.999999999999922,0.6590093933213682,258.07850284524784,132.66041914961474,81.82491061387115,0.0,0,0.0,,,,,,
24.99999999999992,0.6710171364542494,257.08177379713317,132.5796032808487,84.73428188944912,0.0,0,0.0,,,,,,
25.999999999999915,0.6826195494856385,256.0850447490185,132.49878741208263,87.64365316502709,0.0,0,0.0,,,,,,
26.99999999999991,0.6938431032963678,255.08831570090382,132.41797154331658,90.55302444060506,0.0,0,0.0,,,,,,
27.999999999999908,0.7047117576640067,254.09158665278915,132.33715567455053,93.46239571618302,0.0,0,0.0,,,,,,
28.999999999999904,0.7152472691413426,253.09485760467447,132.25633980578448,96.37176699176099,0.0,0,0.0,,,,,,
29.9999999999999,0.7254694531531334,252.0981285565598,132.17552393701843,99.28113826733896,0.0,0,0.0,,,,,,
30.999999999999897,0.7353964082445196,251.10139950844513,132.09470806825237,102.19050954291693,0.0,0,0.0,,,,,,
31.999999999999893,0.7450447088556236,250.10467046033045,132.01389219948632,105.0998808184949,0.0,0,0.0,,,,,,
32.99999999999989,0.7544295717785118,249.10794141221578,131.93307633072027,108.00925209407286,0.0,0,0.0,,,,,,
33.99999999999989,0.7635650004933965,248.1112123641011,131.85226046195422,110.91862336965083,0.0,0,0.0,,,,,,
34.99999999999989,0.7724639108203478,247.11448331598643,131.77144459318816,113.8279946452288,0.0,0,0.0,,,,,,
35.99999999999989,0.7811382407157407,246.11775426787176,131.6906287244221,116.73736592080677,0.0,0,0.0,,,,,,
36.99999999999989,0.7895990465551607,245.1210252197571,131.60981285565606,119.64673719638473,0.0,0,0.0,,,,,,
37.12142238654116,0.7906133153281891,245.0,131.6,119.78168605817048,0.0,0,0.0,,,,,,
38.12142238654116,0.798954235908399,244.0,131.6,120.0,0.0,0,0.0,,,,,,
39.12142238654116,0.8072875692417323,243.0,131.6,120.0,0.0,0,0.0,,,,,,
40.12142238654116,0.8156209025750656,242.0,131.6,120.0,0.0,0,0.0,,,,,,
41.12142238654116,0.8239542359083989,241.0,131.6,120.0,0.0,0,0.0,,,,,,
42.12142238654116,0.8322875692417322,240.0,131.6,120.0,0.0,0,0.0,,,,,,
43.12142238654116,0.8406209025750655,239.0,131.6,120.0,0.0,0,0.0,,,,,,
44.12142238654116,0.8489542359083988,238.0,131.6,120.0,0.0,0,0.0,,,,,,
45.12142238654116,0.8572875692417321,237.0,131.6,120.0,0.0,0,0.0,,,,,,
46.12142238654116,0.8656209025750654,236.0,131.6,120.0,0.0,0,0.0,,,,,,
47.12142238654116,0.8739542359083987,235.0,131.6,120.0,0.0,0,0.0,,,,,,
48.12142238654116,0.882287569241732,234.0,131.6,120.0,0.0,0,0.0,,,,,,
49.12142238654116,0.8906209025750653,233.0,131.6,120.0,0.0,0,0.0,,,,,,
50.12142238654116,0.8989542359083986,232.0,131.6,120.0,0.0,0,0.0,,,,,,
51.12142238654116,0.9072875692417319,231.0,131.6,120.0,0.0,0,0.0,,,,,,
52.12142238654116,0.9156209025750652,230.0,131.6,120.0,0.0,0,0.0,,,,,,
53.12142238654116,0.9239542359083985,229.0,131.6,120.0,0.0,0,0.0,,,,,,
54.12142238654116,0.9322875692417318,228.0,131.6,120.0,0.0,0,0.0,,,,,,
55.12142238654116,0.9406209025750651,227.0,131.6,120.0,0.0,0,0.0,,,,,,
56.12142238654116,0.9489542359083984,226.0,131.6,120.0,0.0,0,0.0,,,,,,
57.12142238654116,0.9572875692417318,225.0,131.6,120.0,0.0,0,0.0,,,,,,
58.12142238654116,0.965620902575065,224.0,131.6,120.0,0.0,0,0.0,,,,,,
59.12142238654116,0.9739542359083984,223.0,131.6,120.0,0.0,0,0.0,,,,,,
60.12142238654116,0.9822875692417317,222.0,131.6,120.0,0.0,0,0.0,,,,,,
61.12142238654116,0.990620902575065,221.0,131.6,120.0,0.0,0,0.0,,,,,,
62.12142238654116,0.9989542359083983,220.0,131.6,120.0,0.0,0,0.0,,,,,,
63.12142238654116,1.0072875692417316,219.0,131.6,120.0,0.0,0,0.0,,,,,,
64.12142238654116,1.0156209025750649,218.0,131.6,120.0,0.0,0,0.0,,,,,,
65.12142238654116,1.0239542359083982,217.0,131.6,120.0,0.0,0,0.0,,,,,,
66.12142238654116,1.0322875692417315,216.0,131.6,120.0,0.0,0,0.0,,,,,,
67.12142238654116,1.0406209025750648,215.0,131.6,120.0,0.0,0,0.0,,,,,,
68.12142238654116,1.048954235908398,214.0,131.6,120.0,0.0,0,0.0,,,,,,
69.12142238654116,1.0572875692417314,213.0,131.6,120.0,0.0,0,0.0,,,,,,
70.12142238654116,1.0656209025750647,212.0,131.6,120.0,0.0,0,0.0,,,,,,
71.12142238654116,1.073954235908398,211.0,131.6,120.0,0.0,0,0.0,,,,,,
72.12142238654116,1.0822875692417313,210.0,131.6,120.0,0.0,0,0.0,,,,,,
73.12142238654116,1.0906209025750646,209.0,131.6,120.0,0.0,0,0.0,,,,,,
74.12142238654116,1.098954235908398,208.0,131.6,120.0,0.0,0,0.0,,,,,,
75.12142238654116,1.1072875692417312,207.0,131.6,120.0,0.0,0,0.0,,,,,,
76.12142238654116,1.1156209025750645,206.0,131.6,120.0,0.0,0,0.0,,,,,,
77.12142238654116,1.1239542359083978,205.0,131.6,120.0,0.0,0,-0.0,,,,,,
78.12142238654116,1.1322875692417311,204.0,131.6,120.0,0.0,0,-0.0,,,,,,
79.12142238654116,1.1406209025750644,203.0,131.6,120.0,0.0,0,-0.0,,,,,,
80.12142238654116,1.1489542359083977,202.0,131.6,120.0,0.0,0,-0.0,,,,,,
81.12142238654116,1.157287569241731,201.0,131.6,120.0,0.0,0,-0.0,,,,,,
82.12142238654116,1.1656209025750643,200.0,131.6,120.0,0.0,0,-0.0,,,,,,
83.12142238654116,1.1739542359083976,199.0,131.6,120.0,0.0,0,-0.0,,,,,,
84.12142238654116,1.182287569241731,198.0,131.6,120.0,0.0,0,-0.0,,,,,,
85.12142238654116,1.1906209025750643,197.0,131.6,120.0,0.0,0,-0.0,,,,,,
86.12142238654116,1.1989542359083976,196.0,131.6,120.0,0.0,0,-0.0,,,,,,
87.12142238654116,1.2072875692417309,195.0,131.6,120.0,0.0,0,-0.0,,,,,,
88.12142238654116,1.2156209025750642,194.0,131.6,120.0,0.0,0,-0.0,,,,,,
89.12142238654116,1.2239542359083975,193.0,131.6,120.0,0.0,0,-0.0,,,,,,
90.12142238654116,1.2322875692417308,192.0,131.6,120.0,0.0,0,-0.0,,,,,,
91.12142238654116,1.240620902575064,191.0,131.6,120.0,0.0,0,-0.0,,,,,,
92.12142238654116,1.2489542359083974,190.0,131.6,120.0,0.0,0,-0.0,,,,,,
93.12142238654116,1.2572875692417307,189.0,131.6,120.0,0.0,0,-0.0,,,,,,
94.12142238654116,1.265620902575064,188.0,131.6,120.0,0.0,0,-0.0,,,,,,
95.12142238654116,1.2739542359083973,187.0,131.6,120.0,0.0,0,-0.0,,,,,,
96.12142238654116,1.2822875692417306,186.0,131.6,120.0,0.0,0,-0.0,,,,,,
97.12142238654116,1.290620902575064,185.0,131.6,120.0,0.0,0,-0.0,,,,,,
98.12142238654116,1.2989542359083972,184.0,131.6,120.0,0.0,0,-0.0,,,,,,
99.12142238654116,1.3072875692417305,183.0,131.6,120.0,0.0,0,-0.0,,,,,,
100.12142238654116,1.3156209025750638,182.0,131.6,120.0,0.0,0,-0.0,,,,,,
101.12142238654116,1.3239542359083971,181.0,131.6,120.0,0.0,0,-0.0,,,,,,
102.12142238654116,1.3322875692417304,180.0,131.6,120.0,0.0,0,-0.0,,,,,,
103.12142238654116,1.3406209025750637,179.0,131.6,120.0,0.0,0,-0.0,,,,,,
104.12142238654116,1.348954235908397,178.0,131.6,120.0,0.0,0,-0.0,,,,,,
105.12142238654116,1.3572875692417303,177.0,131.6,120.0,0.0,0,-0.0,,,,,,
106.12142238654116,1.3656209025750636,176.0,131.6,120.0,0.0,0,-0.0,,,,,,
107.12142238654116,1.373954235908397,175.0,131.6,120.0,0.0,0,-0.0,,,,,,
108.12142238654116,1.3822875692417302,174.0,131.6,120.0,0.0,0,-0.0,,,,,,
109.12142238654116,1.3906209025750635,173.0,131.6,120.0,0.0,0,-0.0,,,,,,
110.12142238654116,1.3989542359083968,172.0,131.6,120.0,0.0,0,-0.0,,,,,,
111.12142238654116,1.4072875692417302,171.0,131.6,120.0,0.0,0,0.0,,,,,,
112.12142238654116,1.4156209025750635,170.0,131.6,120.0,0.0,0,0.0,,,,,,
113.12142238654116,1.4239542359083968,169.0,131.6,120.0,0.0,0,0.0,,,,,,
114.12142238654116,1.43228756924173,168.0,131.6,120.0,0.0,0,0.0,,,,,,
115.12142238654116,1.4406209025750634,167.0,131.6,120.0,0.0,0,0.0,,,,,,
116.12142238654116,1.4489542359083967,166.0,131.6,120.0,0.0,0,0.0,,,,,,
117.12142238654116,1.45728756924173,165.0,131.6,120.0,0.0,0,0.0,,,,,,
118.12142238654116,1.4656209025750633,164.0,131.6,120.0,0.0,0,0.0,,,,,,
119.12142238654116,1.4739542359083966,163.0,131.6,120.0,0.0,0,0.0,,,,,,
120.12142238654116,1.4822875692417299,162.0,131.6,120.0,0.0,0,0.0,,,,,,
121.12142238654116,1.4906209025750632,161.0,131.6,120.0,0.0,0,0.0,,,,,,
122.12142238654116,1.4989542359083965,160.0,131.6,120.0,0.0,0,0.0,,,,,,
123.12142238654116,1.5072875692417298,159.0,131.6,120.0,0.0,0,0.0,,,,,,
124.12142238654116,1.515620902575063,158.0,131.6,120.0,0.0,0,0.0,,,,,,
125.12142238654116,1.5239542359083964,157.0,131.6,120.0,0.0,0,0.0,,,,,,
126.12142238654116,1.5322875692417297,156.0,131.6,120.0,0.0,0,0.0,,,,,,
127.12142238654116,1.540620902575063,155.0,131.6,120.0,0.0,0,0.0,,,,,,
128.12142238654116,1.5489542359083963,154.0,131.6,120.0,0.0,0,0.0,,,,,,
129.12142238654116,1.5572875692417296,153.0,131.6,120.0,0.0,0,0.0,,,,,,
130.12142238654116,1.565620902575063,152.0,131.6,120.0,0.0,0,0.0,,,,,,
131.12142238654116,1.5739542359083962,151.0,131.6,120.0,0.0,0,0.0,,,,,,
132.12142238654116,1.5822875692417295,150.0,131.6,120.0,0.0,0,0.0,,,,,,
133.12142238654116,1.5906209025750628,149.0,131.6,120.0,0.0,0,0.0,,,,,,
134.12142238654116,1.5989542359083961,148.0,131.6,120.0,0.0,0,0.0,,,,,,
135.12142238654116,1.6072875692417294,147.0,131.6,120.0,0.0,0,0.0,,,,,,
136.12142238654116,1.6156209025750627,146.0,131.6,120.0,0.0,0,0.0,,,,,,
137.12142238654116,1.623954235908396,145.0,131.6,120.0,0.0,0,0.0,,,,,,
138.12142238654116,1.6322875692417294,144.0,131.6,120.0,0.0,0,0.0,,,,,,
139.12142238654116,1.6406209025750627,143.0,131.6,120.0,0.0,0,0.0,,,,,,
140.12142238654116,1.648954235908396,142.0,131.6,120.0,0.0,0,0.0,,,,,,
141.12142238654116,1.6572875692417293,141.0,131.6,120.0,0.0,0,0.0,,,,,,
142.12142238654116,1.6656209025750626,140.0,131.6,120.0,0.0,0,0.0,,,,,,
143.12142238654116,1.6739542359083959,139.0,131.6,120.0,0.0,0,0.0,,,,,,
144.12142238654116,1.6822875692417292,138.0,131.6,120.0,0.0,0,0.0,,,,,,
145.12142238654116,1.6906209025750625,137.0,131.6,120.0,0.0,0,0.0,,,,,,
146.12142238654116,1.6989542359083958,136.0,131.6,120.0,0.0,0,0.0,,,,,,
147.12142238654116,1.707287569241729,135.0,131.6,120.0,0.0,0,0.0,,,,,,
148.12142238654116,1.7156209025750624,134.0,131.6,120.0,0.0,0,0.0,,,,,,
149.12142238654116,1.7239542359083957,133.0,131.6,120.0,0.0,0,0.0,,,,,,
150.12142238654116,1.732287569241729,132.0,131.6,120.0,0.0,0,0.0,,,,,,
151.12142238654116,1.7406209025750623,131.0,131.6,120.0,0.0,0,0.0,,,,,,
152.12142238654116,1.7490347944476008,130.0,131.60000000000002,117.70212765957447,0.0,0,0.0,,,,,,
153.12142238654116,1.7576145680876154,129.0,131.60000000000002,115.40425531914894,0.0,0,0.0,,,,,,
154.12142238654116,1.7663668958343566,128.0,131.60000000000002,113.10638297872342,0.0,0,0.0,,,,,,
155.12142238654116,1.7752988608666638,127.0,131.60000000000002,110.80851063829789,0.0,0,0.0,,,,,,
156.12142238654116,1.7844179916388796,126.0,131.60000000000002,108.51063829787236,0.0,0,0.0,,,,,,
157.12142238654116,1.7937323000019394,125.0,131.60000000000002,106.21276595744683,0.0,0,0.0,,,,,,
158.12142238654116,1.8032503234932313,124.0,131.60000000000002,103.9148936170213,0.0,0,0.0,,,,,,
159.12142238654116,1.812981172354515,123.0,131.60000000000002,101.61702127659578,0.0,0,0.0,,,,,,
160.12142238654116,1.8229345819267302,122.0,131.60000000000002,99.31914893617025,0.0,0,0.0,,,,,,
161.12142238654116,1.8331209711768386,121.0,131.60000000000002,97.02127659574472,0.0,0,0.0,,,,,,
162.12142238654116,1.843551508238534,120.0,131.60000000000002,94.7234042553192,0.0,0,0.0,,,,,,
163.12142238654116,1.854238184000244,119.0,131.60000000000002,92.42553191489367,0.0,0,0.0,,,,,,
164.12142238654116,1.865193894955955,118.0,131.60000000000002,90.12765957446814,0.0,0,0.0,,,,,,
165.12142238654116,1.8764325367541377,117.0,131.60000000000002,87.82978723404261,0.0,0,0.0,,,,,,
166.12142238654116,1.8879691101463811,116.0,131.60000000000002,85.53191489361708,0.0,0,0.0,,,,,,
167.12142238654116,1.8998198413617113,115.0,131.60000000000002,83.23404255319156,0.0,0,0.0,,,,,,
168.12142238654116,1.9120023193295703,114.0,131.60000000000002,80.93617021276603,0.0,0,0.0,,,,,,
169.12142238654116,1.9245356526629036,113.0,131.60000000000002,78.6382978723405,0.0,0,0.0,,,,,,
170.12142238654116,1.9374406499171595,112.0,131.60000000000002,76.34042553191497,0.0,0,0.0,,,,,,
171.12142238654116,1.9507400273931075,111.0,131.60000000000002,74.04255319148945,0.0,0,0.0,,,,,,
172.12142238654116,1.9644586496931657,110.0,131.60000000000002,71.74468085106392,0.0,0,0.0,,,,,,
173.12142238654116,1.9786238094279458,109.0,131.60000000000002,69.44680851063839,0.0,0,0.0,,,,,,
174.12142238654116,1.9932655539762323,108.0,131.60000000000002,67.14893617021286,0.0,0,0.0,,,,,,
175.12142238654116,2.008417069127747,107.0,131.60000000000002,64.85106382978734,0.0,0,0.0,,,,,,
176.12142238654116,2.024115131919998,106.0,131.60000000000002,62.5531914893618,0.0,0,0.0,,,,,,
177.12142238654116,2.0404006482055146,105.0,131.60000000000002,60.255319148936266,0.0,0,0.0,,,,,,
178.12142238654116,2.057319294713794,104.0,131.60000000000002,57.95744680851073,0.0,0,0.0,,,,,,
179.12142238654116,2.0749222909684755,103.0,131.60000000000002,55.6595744680852,0.0,0,0.0,,,,,,
180.12142238654116,2.0932673339036825,102.0,131.60000000000002,53.36170212765966,0.0,0,0.0,,,,,,
181.12142238654116,2.112419738141661,101.0,131.60000000000002,51.06382978723413,0.0,0,-0.0,,,,,,
182.12142238654116,2.1324538387384218,100.0,131.60000000000002,48.76595744680859,0.0,0,-0.0,,,,,,
183.12142238654116,2.1534547323934707,99.0,131.60000000000002,46.46808510638306,0.0,0,-0.0,,,,,,
184.12142238654116,2.175520460093001,98.0,131.60000000000002,44.17021276595752,0.0,0,-0.0,,,,,,
185.12142238654116,2.198764772654821,97.0,131.60000000000002,41.87234042553199,0.0,0,-0.0,,,,,,
186.12142238654116,2.22332067652107,96.0,131.60000000000002,39.57446808510645,0.0,0,-0.0,,,,,,
187.12142238654116,2.2493450397547354,95.0,131.60000000000002,37.27659574468092,0.0,0,-0.0,,,,,,
188.12142238654116,2.2770246628407187,94.0,131.60000000000002,34.97872340425538,0.0,0,-0.0,,,,,,
189.12142238654116,2.3065844112683918,93.0,131.60000000000002,32.68085106382985,0.0,0,-0.0,,,,,,
190.12142238654116,2.3382983114033444,92.0,131.60000000000002,30.382978723404317,0.0,0,-0.0,,,,,,
191.12142238654116,2.3725050071820926,91.0,131.60000000000002,28.085106382978786,0.0,0,-0.0,,,,,,
192.12142238654116,2.4096298097097386,90.0,131.60000000000002,25.787234042553255,0.0,0,0.0,,,,,,
193.12142238654116,2.4502170290534346,89.0,131.60000000000002,23.489361702127724,0.0,0,0.0,,,,,,
194.12142238654116,2.4949789338153394,88.0,131.60000000000002,21.191489361702192,0.0,0,0.0,,,,,,
195.12142238654116,2.5448727767028125,87.0,131.60000000000002,18.89361702127666,0.0,0,0.0,,,,,,
196.12142238654116,2.6012276927699585,86.0,131.60000000000002,16.59574468085113,0.0,0,0.0,,,,,,
197.12142238654116,2.6659659847809776,85.0,131.60000000000002,14.297872340425599,0.0,0,0.0,,,,,,
198.12142238654116,2.7420177647162522,84.0,131.60000000000002,12.000000000000068,0.0,0,0.0,,,,,,
199.12142238654116,2.8253510980495853,83.0,131.60000000000002,12.0,0.0,0,0.0,,,,,,
