Distance (in),Time (s),X (in),Y (in),Velocity (in/s),Orientation (deg),Touch,Rotational Velocity (deg/s),Way X (in),Way Y (in),Way Velocity (in/s),Way Orientation (deg),Way Turn Radius (in),Touch this Point
0.0,0.0,74.0,275.6,12.0,0.0,0,0.0,74.0,275.6,12.0,0.0,3.0,0
1.0000000000000064,0.0713130875230833,74.87157553712456,276.0902612396326,16.045343000366294,0.0,0,0.0,90.0,284.6,96.0,0.0,20.0,0
2.000000000000013,0.12665951199986225,75.74315107424911,276.58052247926514,20.09068600073259,0.0,0,0.0,182.26,284.6,96.0,0.0,8.0,0
3.0000000000000195,0.17188104834768259,76.61472661137367,277.0707837188977,24.136029001098887,0.0,0,0.0,208.19,284.6,96.0,350.0,20.0,0
4.000000000000026,0.21010924702869108,77.48630214849823,277.56104495853026,28.18137200146518,0.0,0,-0.0,235.16,277.52,36.0,315.0,20.0,0
5.000000000000032,0.24321739693403183,78.35787768562278,278.0513061981628,32.22671500183148,0.0,0,-0.0,280.04,239.28,12.0,315.0,3.0,0
6.000000000000038,0.27241500022369025,79.22945322274734,278.5415674377954,36.272058002197774,0.0,0,-0.0,,,,,,
7.000000000000044,0.29852825426659535,80.1010287598719,279.03182867742794,40.31740100256407,0.0,0,-0.0,,,,,,
8.000000000000052,0.3221465416451803,80.97260429699645,279.5220899170605,44.36274400293037,0.0,0,-0.0,,,,,,
9.000000000000059,0.34370504207367997,81.84417983412101,280.01235115669306,48.40808700329667,0.0,0,0.0,,,,,,
10.000000000000066,0.36353421041607176,82.71575537124556,280.5026123963256,52.45343000366297,0.0,0,0.0,,,,,,
11.000000000000073,0.3818908837534508,83.58733090837012,280.9928736359582,56.498773004029275,0.0,0,0.0,,,,,,
12.00000000000008,0.39897863694327557,84.45890644549468,281.48313487559074,60.544116004395576,0.0,0,0.0,,,,,,
13.000000000000087,0.4149615575930984,85.33048198261923,281.9733961152233,64.58945900476188,0.0,0,0.0,,,,,,
13.999333400747098,0.4299641347710994,86.21082162430199,282.44633306781895,68.63210538250601,0.0,0,0.0,,,,,,
14.9992292373356,0.44411602742922474,87.11404942471643,282.87525173678256,72.67702700614468,0.0,0,0.0,,,,,,
15.9991250739241,0.457501605641289,88.03758542433582,283.2584917939713,76.72194862978336,0.0,0,0.0,,,,,,
16.999020910512588,0.47019959707558906,88.97912126412935,283.59509533882976,80.76687025342197,0.0,0,0.0,,,,,,
17.99891674710108,0.48227718996978136,89.93630359483991,283.8842210377956,84.81179187706061,0.0,0,0.0,,,,,,
18.998812583689578,0.4939716626916595,90.90673995913167,284.12514622719516,86.19135813548866,0.0,0,0.0,,,,,,
19.998708420278067,0.5054804414902953,91.88800477148737,284.3172687195263,87.5709243939167,0.0,0,0.0,,,,,,
20.99860425686656,0.5168093313740122,92.87764538090897,284.46010830861366,88.95049065234474,0.0,0,0.0,,,,,,
21.998500093455064,0.5279638693334244,93.8731882012678,284.5533079698739,90.3300569107728,0.0,0,0.0,,,,,,
22.998500093455064,0.538950476320307,94.8731882012678,284.5533079698739,91.70976688449859,0.0,0,0.0,,,,,,
23.998500093455064,0.549773031431974,95.8731882012678,284.5533079698739,93.08947685822439,0.0,0,0.0,,,,,,
24.998500093455064,0.5604363618303169,96.8731882012678,284.5533079698739,94.46918683195018,0.0,0,0.0,,,,,,
25.998500093455064,0.5709450847103144,97.8731882012678,284.5533079698739,95.84889680567598,0.0,0,0.0,,,,,,
26.998500093455064,0.58136995570671,98.8731882012678,284.5533079698739,96.0,0.0,0,0.0,,,,,,
27.998500093455064,0.5917866223733766,99.8731882012678,284.5533079698739,96.0,0.0,0,0.0,,,,,,
28.998500093455064,0.6022032890400433,100.8731882012678,284.5533079698739,96.0,0.0,0,0.0,,,,,,
29.998500093455064,0.6126199557067099,101.8731882012678,284.5533079698739,96.0,0.0,0,0.0,,,,,,
30.998500093455064,0.6230366223733765,102.8731882012678,284.5533079698739,96.0,0.0,0,0.0,,,,,,
31.998500093455064,0.6334532890400432,103.8731882012678,284.5533079698739,96.0,0.0,0,0.0,,,,,,
32.998500093455064,0.6438699557067098,104.8731882012678,284.5533079698739,96.0,0.0,0,0.0,,,,,,
33.998500093455064,0.6542866223733764,105.8731882012678,284.5533079698739,96.0,0.0,0,0.0,,,,,,
34.998500093455064,0.664703289040043,106.8731882012678,284.5533079698739,96.0,0.0,0,0.0,,,,,,
35.998500093455064,0.6751199557067097,107.8731882012678,284.5533079698739,96.0,0.0,0,0.0,,,,,,
36.998500093455064,0.6855366223733763,108.8731882012678,284.5533079698739,96.0,0.0,0,0.0,,,,,,
37.998500093455064,0.6959532890400429,109.8731882012678,284.5533079698739,96.0,0.0,0,0.0,,,,,,
38.998500093455064,0.7063699557067096,110.8731882012678,284.5533079698739,96.0,0.0,0,0.0,,,,,,
39.998500093455064,0.7167866223733762,111.8731882012678,284.5533079698739,96.0,0.0,0,0.0,,,,,,
40.998500093455064,0.7272032890400428,112.8731882012678,284.5533079698739,96.0,0.0,0,0.0,,,,,,
41.998500093455064,0.7376199557067095,113.8731882012678,284.5533079698739,96.0,0.0,0,0.0,,,,,,
42.998500093455064,0.7480366223733761,114.8731882012678,284.5533079698739,96.0,0.0,0,0.0,,,,,,
43.998500093455064,0.7584532890400427,115.8731882012678,284.5533079698739,96.0,0.0,0,0.0,,,,,,
44.998500093455064,0.7688699557067094,116.8731882012678,284.5533079698739,96.0,0.0,0,0.0,,,,,,
45.998500093455064,0.779286622373376,117.8731882012678,284.5533079698739,96.0,0.0,0,0.0,,,,,,
46.998500093455064,0.7897032890400426,118.8731882012678,284.5533079698739,96.0,0.0,0,0.0,,,,,,
47.998500093455064,0.8001199557067092,119.8731882012678,284.5533079698739,96.0,0.0,0,0.0,,,,,,
48.998500093455064,0.8105366223733759,120.8731882012678,284.5533079698739,96.0,0.0,0,0.0,,,,,,
49.998500093455064,0.8209532890400425,121.8731882012678,284.5533079698739,96.0,0.0,0,-0.0,,,,,,
50.998500093455064,0.8313699557067091,122.8731882012678,284.5533079698739,96.0,0.0,0,-0.0,,,,,,
51.998500093455064,0.8417866223733758,123.8731882012678,284.5533079698739,96.0,0.0,0,-0.0,,,,,,
52.998500093455064,0.8522032890400424,124.8731882012678,284.5533079698739,96.0,0.0,0,-0.0,,,,,,
53.998500093455064,0.862619955706709,125.8731882012678,284.5533079698739,96.0,0.0,0,-0.0,,,,,,
54.998500093455064,0.8730366223733756,126.8731882012678,284.5533079698739,96.0,0.0,0,-0.0,,,,,,
55.998500093455064,0.8834532890400423,127.8731882012678,284.5533079698739,96.0,0.0,0,-0.0,,,,,,
56.998500093455064,0.8938699557067089,128.8731882012678,284.5533079698739,96.0,0.0,0,-0.0,,,,,,
57.998500093455064,0.9042866223733755,129.8731882012678,284.5533079698739,96.0,0.0,0,-0.0,,,,,,
58.998500093455064,0.9147032890400422,130.8731882012678,284.5533079698739,96.0,0.0,0,-0.0,,,,,,
59.998500093455064,0.9251199557067088,131.8731882012678,284.5533079698739,96.0,0.0,0,-0.0,,,,,,
60.998500093455064,0.9355366223733754,132.8731882012678,284.5533079698739,96.0,0.0,0,-0.0,,,,,,
61.998500093455064,0.9459532890400421,133.8731882012678,284.5533079698739,96.0,0.0,0,-0.0,,,,,,
62.998500093455064,0.9563699557067087,134.8731882012678,284.5533079698739,96.0,0.0,0,-0.0,,,,,,
63.998500093455064,0.9667866223733753,135.8731882012678,284.5533079698739,96.0,0.0,0,-0.0,,,,,,
64.99850009345506,0.977203289040042,136.8731882012678,284.5533079698739,96.0,0.0,0,-0.0,,,,,,
65.99850009345506,0.9876199557067086,137.8731882012678,284.5533079698739,96.0,0.0,0,-0.0,,,,,,
66.99850009345506,0.9980366223733752,138.8731882012678,284.5533079698739,96.0,0.0,0,-0.0,,,,,,
67.99850009345506,1.008453289040042,139.8731882012678,284.5533079698739,96.0,0.0,0,-0.0,,,,,,
68.99850009345506,1.0188699557067087,140.8731882012678,284.5533079698739,96.0,0.0,0,-0.0,,,,,,
69.99850009345506,1.0292866223733754,141.8731882012678,284.5533079698739,96.0,0.0,0,-0.0,,,,,,
70.99850009345506,1.0397032890400422,142.8731882012678,284.5533079698739,96.0,0.0,0,-0.0,,,,,,
71.99850009345506,1.050119955706709,143.8731882012678,284.5533079698739,96.0,0.0,0,-0.0,,,,,,
72.99850009345506,1.0605366223733756,144.8731882012678,284.5533079698739,96.0,0.0,0,-0.0,,,,,,
73.99850009345506,1.0709532890400424,145.8731882012678,284.5533079698739,96.0,0.0,0,-0.0,,,,,,
74.99850009345506,1.0813699557067091,146.8731882012678,284.5533079698739,96.0,0.0,0,-0.0,,,,,,
75.99850009345506,1.0917866223733759,147.8731882012678,284.5533079698739,96.0,0.0,0,-0.0,,,,,,
76.99850009345506,1.1022032890400426,148.8731882012678,284.5533079698739,96.0,0.0,0,-0.0,,,,,,
77.99850009345506,1.1126199557067094,149.8731882012678,284.5533079698739,96.0,0.0,0,0.0,,,,,,
78.99850009345506,1.123036622373376,150.8731882012678,284.5533079698739,96.0,0.0,0,0.0,,,,,,
79.99850009345506,1.1334532890400428,151.8731882012678,284.5533079698739,96.0,0.0,0,0.0,,,,,,
80.99850009345506,1.1438699557067096,152.8731882012678,284.5533079698739,96.0,0.0,0,0.0,,,,,,
81.99850009345506,1.1542866223733763,153.8731882012678,284.5533079698739,96.0,0.0,0,0.0,,,,,,
82.99850009345506,1.164703289040043,154.8731882012678,284.5533079698739,96.0,0.0,0,0.0,,,,,,
83.99850009345506,1.1751199557067098,155.8731882012678,284.5533079698739,96.0,0.0,0,0.0,,,,,,
84.99850009345506,1.1855366223733765,156.8731882012678,284.5533079698739,96.0,0.0,0,0.0,,,,,,
85.99850009345506,1.1959532890400433,157.8731882012678,284.5533079698739,96.0,0.0,0,0.0,,,,,,
86.99850009345506,1.20636995570671,158.8731882012678,284.5533079698739,96.0,0.0,0,0.0,,,,,,
87.99850009345506,1.2167866223733768,159.8731882012678,284.5533079698739,96.0,0.0,0,0.0,,,,,,
88.99850009345506,1.2272032890400435,160.8731882012678,284.5533079698739,96.0,0.0,0,0.0,,,,,,
89.99850009345506,1.2376199557067102,161.8731882012678,284.5533079698739,96.0,0.0,0,0.0,,,,,,
90.99850009345506,1.248036622373377,162.8731882012678,284.5533079698739,96.0,0.0,0,0.0,,,,,,
91.99850009345506,1.2584532890400437,163.8731882012678,284.5533079698739,96.0,0.0,0,0.0,,,,,,
92.99850009345506,1.2688699557067105,164.8731882012678,284.5533079698739,96.0,0.0,0,0.0,,,,,,
93.99850009345506,1.2792866223733772,165.8731882012678,284.5533079698739,96.0,0.0,0,0.0,,,,,,
94.99850009345506,1.289703289040044,166.8731882012678,284.5533079698739,96.0,0.0,0,0.0,,,,,,
95.99850009345506,1.3001199557067107,167.8731882012678,284.5533079698739,96.0,0.0,0,0.0,,,,,,
96.99850009345506,1.3105366223733774,168.8731882012678,284.5533079698739,96.0,0.0,0,0.0,,,,,,
97.99850009345506,1.3209532890400442,169.8731882012678,284.5533079698739,96.0,0.0,0,0.0,,,,,,
98.99850009345506,1.331369955706711,170.8731882012678,284.5533079698739,96.0,0.0,0,0.0,,,,,,
99.99850009345506,1.3417866223733776,171.8731882012678,284.5533079698739,96.0,0.0,0,0.0,,,,,,
100.99850009345506,1.3522032890400444,172.8731882012678,284.5533079698739,96.0,0.0,0,0.0,,,,,,
101.99850009345506,1.3626199557067111,173.8731882012678,284.5533079698739,96.0,0.0,0,0.0,,,,,,
102.99850009345506,1.3730366223733779,174.8731882012678,284.5533079698739,96.0,0.0,0,0.0,,,,,,
103.99850009345506,1.3834532890400446,175.8731882012678,284.5533079698739,96.0,0.0,0,0.0,,,,,,
104.99850009345506,1.3938699557067113,176.8731882012678,284.5533079698739,96.0,0.0,0,0.0,,,,,,
105.99850009345506,1.404286622373378,177.8731882012678,284.5533079698739,96.0,0.0,0,0.0,,,,,,
106.99850009345506,1.4147032890400448,178.8731882012678,284.5533079698739,96.0,0.0,0,0.0,,,,,,
107.99850009345506,1.4251199557067116,179.8731882012678,284.5533079698739,96.0,0.0,0,0.0,,,,,,
108.99850009345506,1.4355366223733783,180.8731882012678,284.5533079698739,96.0,0.0,0,0.0,,,,,,
109.99850009345506,1.445953289040045,181.8731882012678,284.5533079698739,96.0,0.0,0,0.0,,,,,,
110.38811979690412,1.4500118276176395,182.26,284.6,96.0,359.9350301835086,0,-6.237102383170297,,,,,,
111.38811979690412,1.4604284942843062,183.26,284.6,96.0,359.8050905505259,0,-12.474204766340595,,,,,,
112.38811979690412,1.470845160950973,184.26,284.6,96.0,359.61018110105186,0,-18.711307149510894,,,,,,
113.38811979690412,1.4812618276176397,185.26,284.6,96.0,359.35030183508644,0,-24.94840953268119,,,,,,
114.38811979690412,1.4916784942843064,186.26,284.6,96.0,359.02545275262963,0,-31.18551191585149,,,,,,
115.38811979690412,1.5020951609509732,187.26,284.6,96.0,358.6356338536815,0,-37.42261429902179,,,,,,
116.38811979690412,1.51251182761764,188.26,284.6,96.0,358.180845138242,0,-43.65971668219209,,,,,,
117.38811979690412,1.5229284942843067,189.26,284.6,96.0,357.66108660631113,0,-49.89681906536238,,,,,,
118.38811979690412,1.5333451609509734,190.26,284.6,96.0,357.0763582578889,0,-56.13392144853269,,,,,,
119.38811979690412,1.5437618276176401,191.26,284.6,96.0,356.4848876555636,0,-56.78117782322434,,,,,,
120.38811979690412,1.5541784942843069,192.26,284.6,96.0,355.8934170532384,0,-56.78117782322434,,,,,,
121.38811979690412,1.5645951609509736,193.26,284.6,96.0,355.30194645091314,0,-56.78117782322434,,,,,,
122.38811979690412,1.5750118276176404,194.26,284.6,96.0,354.71047584858786,0,-56.78117782322434,,,,,,
123.38811979690412,1.585428494284307,195.26,284.6,96.0,354.1190052462626,0,-56.78117782322434,,,,,,
124.38811979690412,1.5958451609509738,196.26,284.6,96.0,353.5275346439374,0,-56.78117782322434,,,,,,
125.38811979690412,1.6062618276176406,197.26,284.6,96.0,352.9360640416121,0,-56.78117782322434,,,,,,
126.38811979690412,1.6166784942843073,198.26,284.6,96.0,352.3506349153216,0,-56.20119612388874,,,,,,
127.38811979690412,1.627095160950974,199.26,284.6,96.0,351.83017560552247,0,-49.964093740718575,,,,,,
128.3881197969041,1.6375118276176406,200.26,284.6,96.0,351.37468611221465,0,-43.72699135754828,,,,,,
129.3881197969041,1.6479284942843073,201.26,284.6,96.0,350.9841664353982,0,-37.48988897437798,,,,,,
130.3881197969041,1.658345160950974,202.26,284.6,96.0,350.6586165750731,0,-31.25278659120768,,,,,,
131.3881197969041,1.6687618276176408,203.26,284.6,96.0,350.3980365312394,0,-25.01568420803739,,,,,,
132.3881197969041,1.6791784942843075,204.26,284.6,96.0,350.20248284382006,0,-18.77858182486709,,,,,,
133.3881197969041,1.6895951609509743,205.26,284.6,96.0,350.07183726375354,0,-12.543282237458577,,,,,,
134.38783075310604,1.7000088167447445,206.25965476021565,284.5894001731918,96.0,350.0,0,-6.306829532150417,,,,,,
135.38772658969455,1.7104243983758747,207.25789471809534,284.5318791290482,96.0,350.0,0,0.0,,,,,,
136.38762242628306,1.7209575172705027,208.25201228196246,284.424538767404,93.8575049975864,349.91896626633036,0,-7.345193465676291,,,,,,
137.38751826287154,1.731733852727588,209.23952267563376,284.2676473832615,91.71500999517286,349.751004266867,0,-14.864793611045576,,,,,,
138.38751826287154,1.7427660650237398,210.20675033823446,284.0137366731683,89.57229179992217,349.4896920940383,0,-22.566452674445603,,,,,,
139.38751826287154,1.754065380968396,211.17397800083515,283.7598259630751,87.42957360467148,349.1280103789871,0,-30.45920513993779,,,,,,
140.38751826287154,1.7656450553017322,212.14120566343584,283.50591525298194,85.28685540942078,348.6582714962911,0,-38.55277509222369,,,,,,
141.38751826287154,1.7775193544959997,213.10843332603653,283.25200454288876,83.14413721417009,348.0720383785143,0,-46.85764823174518,,,,,,
142.38751826287154,1.7897036624108602,214.07566098863722,282.9980938327956,81.00141901891939,347.36003109926395,0,-55.38515354247762,,,,,,
143.38751826287154,1.8022146001104526,215.04288865123792,282.7441831227024,78.8587008236687,346.51201899723196,0,-64.14755620776616,,,,,,
144.38751826287154,1.8150701621827736,216.0101163138386,282.4902724126092,76.715982628418,345.51669563313806,0,-73.15816368588439,,,,,,
145.38751826287154,1.8282898723660483,216.9773439764393,282.23636170251604,74.57326443316731,344.3615332700209,0,-82.43144724709846,,,,,,
146.38751826287154,1.8418949618591018,217.94457163904,281.98245099242286,72.43054623791662,343.032612809908,0,-91.98318175783453,,,,,,
147.38751826287154,1.8559085744025576,218.91179930164068,281.7285402823297,70.28782804266592,341.51442415990925,0,-101.830607101176,,,,,,
148.38751826287154,1.870356003103291,219.87902696424138,281.4746295722365,68.14510984741523,339.78963077568653,0,-111.99261538081787,,,,,,
149.38751826287154,1.8852649650865023,220.84625462684207,281.2207188621433,66.00239165216453,337.98454181338843,0,-113.33849321125476,,,,,,
150.38751826287154,1.9006659214652577,221.81348228944276,280.96680815205013,63.859673456913846,336.1156758052996,0,-113.33849321125476,,,,,,
151.38751826287154,1.9165924519065398,222.78070995204345,280.71289744195695,61.71695526166316,334.17836097316905,0,-113.33849321125476,,,,,,
152.38751826287154,1.9330816953677656,223.74793761464414,280.4589867318638,59.57423706641247,332.1673926993624,0,-113.33849321125476,,,,,,
153.38751826287154,1.950174871545073,224.71516527724484,280.2050760217706,57.431518871161785,330.0769492938468,0,-113.33849321125476,,,,,,
154.38751826287154,1.9679179014445296,225.68239293984553,279.9511653116774,55.2888006759111,327.90049043150015,0,-113.33849321125476,,,,,,
155.38751826287154,1.98636215058078,226.64962060244622,279.69725460158423,53.14608248066041,325.6306337977637,0,-113.33849321125476,,,,,,
156.38751826287154,2.0055653250776375,227.6168482650469,279.44334389149105,51.003364285409724,323.25900408022966,0,-113.33849321125476,,,,,,
157.38751826287154,2.0255925600392457,228.5840759276476,279.1894331813979,48.86064609015904,321.0261724037135,0,-101.92110473484982,,,,,,
158.38751826287154,2.046517751916585,229.5513035902483,278.9355224713047,46.71792789490835,319.0218172711725,0,-86.98889781491661,,,,,,
159.38751826287154,2.0684252035903574,230.518531252849,278.6816117612115,44.57520969965766,317.2983459237848,0,-71.28371553240501,,,,,,
160.3898547797205,2.0914667086891527,231.49731894492743,278.46561836583874,42.427485007241174,315.9009165172967,0,-54.804145499770016,,,,,,
161.38975061630902,2.115644339365604,232.44616478010602,278.1502086876561,40.28499000482757,314.89150095887226,0,-37.42419222945806,,,,,,
162.38964645289752,2.1411429470666206,233.3780608913698,277.787770662832,38.142495002413966,315.0,0,-19.039782256614046,,,,,,
163.389542289486,2.168115220836364,234.29067802376275,277.3792101976743,36.000000000000426,315.0,0,0.0,,,,,,
164.3894381260745,2.1960490093180325,235.1817351097357,276.92554848057176,35.590420844253416,315.0,0,0.0,,,,,,
165.389333962663,2.2243061238813238,236.04900497062727,276.4279194295547,35.18084168850642,315.0,0,0.0,,,,,,
166.3892297992515,2.2528941370002924,236.89031988345062,275.88756685809045,34.77126253275941,315.0,0,0.0,,,,,,
167.38912563584,2.2818208903283947,237.70357699907208,275.3058413661975,34.3616833770124,315.0,0,0.0,,,,,,
168.38912563583997,2.3110975754527376,238.4647458050763,274.657287552882,33.95206155365886,315.0,0,0.0,,,,,,
169.38912563583995,2.3407296189815208,239.2259146110805,274.0087337395665,33.54243973030532,315.0,0,0.0,,,,,,
170.38912563583992,2.3707257535428723,239.9870834170847,273.36017992625096,33.13281790695178,315.0,0,0.0,,,,,,
171.3891256358399,2.4010950376645463,240.7482522230889,272.71162611293545,32.72319608359824,315.0,0,0.0,,,,,,
172.38912563583986,2.431846872194861,241.50942102909312,272.06307229961993,32.3135742602447,315.0,0,0.0,,,,,,
173.38912563583983,2.462991017771074,242.27058983509733,271.4145184863044,31.90395243689116,315.0,0,0.0,,,,,,
174.3891256358398,2.4945376134164023,243.03175864110153,270.7659646729889,31.49433061353762,315.0,0,0.0,,,,,,
175.38912563583978,2.526497196354344,243.79292744710574,270.1174108596734,31.08470879018408,315.0,0,0.0,,,,,,
176.38912563583975,2.558880723137183,244.55409625310995,269.46885704635787,30.67508696683054,315.0,0,0.0,,,,,,
177.38912563583972,2.591699592194683,245.31526505911415,268.82030323304235,30.265465143477,315.0,0,0.0,,,,,,
178.3891256358397,2.6249656679190796,246.07643386511836,268.17174941972684,29.855843320123462,315.0,0,0.0,,,,,,
179.38912563583966,2.658691306413714,246.83760267112257,267.5231956064113,29.446221496769923,315.0,0,0.0,,,,,,
180.38912563583963,2.692889383045139,247.59877147712677,266.8746417930958,29.036599673416383,315.0,0,0.0,,,,,,
181.3891256358396,2.7275733219524256,248.35994028313098,266.2260879797803,28.626977850062843,315.0,0,0.0,,,,,,
182.38912563583958,2.762757127682924,249.1211090891352,265.5775341664648,28.217356026709304,315.0,0,0.0,,,,,,
183.38912563583955,2.798455419141037,249.8822778951394,264.92898035314926,27.807734203355764,315.0,0,0.0,,,,,,
184.38912563583952,2.83468346605596,250.6434467011436,264.28042653983374,27.398112380002225,315.0,0,0.0,,,,,,
