Distance (in),Time (s),X (in),Y (in),Velocity (in/s),Orientation (deg),Touch,Rotational Velocity (deg/s),Way X (in),Way Y (in),Way Velocity (in/s),Way Orientation (deg),Way Turn Radius (in),Touch this Point
0.0,0.0,83.0,131.60000000000002,12.0,0.0,0,0.0,83.0,131.60000000000002,12.0,0.0,3.0,0.0
0.9999999999999977,0.07382230520720585,83.99388373467362,131.48956847392517,15.092082730095697,0.0,0,0.0,110.0,128.60000000000002,96.0,0.0,20.0,0.0
1.9999999999999953,0.13392523473709708,84.98776746934723,131.37913694785033,18.184165460191394,0.0,0,0.0,142.5,128.60000000000002,84.0,0.0,3.0,0.0
2.999999999999993,0.18460894063321465,85.98165120402085,131.26870542177548,21.27624819028709,0.0,0,0.0,190.0,128.6,96.0,25.0,3.0,0.0
3.9999999999999907,0.22842575391022601,86.97553493869447,131.15827389570063,24.36833092038279,0.0,0,0.0,210.0,128.6,72.0,25.0,50.0,0.0
4.9999999999999885,0.2670143791327713,87.96941867336808,131.04784236962578,27.460413650478486,0.0,0,-0.0,227.8,142.66,48.0,25.0,3.0,0.0
5.999999999999986,0.3014894640566176,88.9633024080417,130.93741084355094,30.552496380574183,0.0,0,-0.0,247.00792706252656,166.05397946018027,12.0,40.0,3.0,0.0
6.999999999999983,0.33264353119590306,89.95718614271532,130.8269793174761,33.64457911066988,0.0,0,-0.0,265.1,186.25,12.0,40.0,20.0,0
7.9999999999999805,0.3610601941157859,90.95106987738893,130.71654779140124,36.73666184076558,0.0,0,-0.0,,,,,,
8.999999999999979,0.3871816514910358,91.94495361206255,130.6061162653264,39.828744570861275,0.0,0,-0.0,,,,,,
9.999999999999977,0.41135096082713796,92.93883734673616,130.49568473925154,42.92082730095697,0.0,0,-0.0,,,,,,
10.999999999999975,0.4338396142898115,93.93272108140978,130.3852532131767,46.01291003105267,0.0,0,-0.0,,,,,,
11.999999999999973,0.454866150213015,94.9266048160834,130.27482168710185,49.10499276114837,0.0,0,0.0,,,,,,
12.999999999999972,0.4746090837434246,95.92048855075701,130.164390161027,52.197075491244064,0.0,0,0.0,,,,,,
13.99999999999997,0.49321611769484164,96.91437228543063,130.05395863495215,55.28915822133976,0.0,0,0.0,,,,,,
14.999999999999968,0.5108108478493479,97.90825602010425,129.9435271088773,58.38124095143546,0.0,0,0.0,,,,,,
15.999999999999966,0.5274977383830931,98.90213975477786,129.83309558280246,61.473323681531156,0.0,0,0.0,,,,,,
16.999999999999964,0.5433658766809144,99.89602348945148,129.7226640567276,64.56540641162685,0.0,0,0.0,,,,,,
17.99999999999996,0.5584918500732686,100.8899072241251,129.61223253065276,67.65748914172255,0.0,0,0.0,,,,,,
18.999999999999957,0.572941979895795,101.88379095879871,129.5018010045779,70.74957187181825,0.0,0,0.0,,,,,,
19.999999999999954,0.5867740777953403,102.87767469347233,129.39136947850307,73.84165460191394,0.0,0,0.0,,,,,,
20.99999999999995,0.6000388418549587,103.87155842814595,129.28093795242822,76.93373733200964,0.0,0,0.0,,,,,,
21.999999999999947,0.6127809776841145,104.86544216281956,129.17050642635337,80.02582006210534,0.0,0,0.0,,,,,,
22.999999999999943,0.6250401070273015,105.85932589749318,129.06007490027852,83.11790279220104,0.0,0,0.0,,,,,,
23.99999999999994,0.6368515104523849,106.8532096321668,128.94964337420367,86.20998552229673,0.0,0,0.0,,,,,,
24.999999999999936,0.6482467391958617,107.84709336684041,128.83921184812883,89.30206825239243,0.0,0,0.0,,,,,,
25.999999999999932,0.6592541228850873,108.84097710151403,128.72878032205398,92.39415098248813,0.0,0,0.0,,,,,,
26.99999999999993,0.6698991937010002,109.83486083618764,128.61834879597913,95.48623371258383,0.0,0,0.0,,,,,,
27.16615541441224,0.6716398270428003,110.0,128.60000000000002,95.4275106380438,0.0,0,0.0,,,,,,
28.16615541441224,0.6821384266012548,111.0,128.60000000000002,95.07408806227198,0.0,0,0.0,,,,,,
29.16615541441224,0.6926761256819939,112.0,128.60000000000002,94.72066548650017,0.0,0,0.0,,,,,,
30.16615541441224,0.7032532166073346,113.0,128.60000000000002,94.36724291072835,0.0,0,0.0,,,,,,
31.16615541441224,0.7138699949901577,114.0,128.60000000000002,94.01382033495653,0.0,0,0.0,,,,,,
32.166155414412245,0.7245267597834804,115.0,128.60000000000002,93.66039775918472,0.0,0,0.0,,,,,,
33.166155414412245,0.7352238133309676,116.0,128.60000000000002,93.3069751834129,0.0,0,0.0,,,,,,
34.166155414412245,0.7459614614184014,117.0,128.60000000000002,92.95355260764109,0.0,0,0.0,,,,,,
35.166155414412245,0.7567400133261291,118.0,128.60000000000002,92.60013003186927,0.0,0,0.0,,,,,,
36.166155414412245,0.7675597818825167,119.0,128.60000000000002,92.24670745609745,0.0,0,0.0,,,,,,
37.166155414412245,0.7784210835184264,120.0,128.60000000000002,91.89328488032564,0.0,0,0.0,,,,,,
38.166155414412245,0.7893242383227445,121.0,128.60000000000002,91.53986230455382,0.0,0,-0.0,,,,,,
39.166155414412245,0.8002695700989828,122.0,128.60000000000002,91.186439728782,0.0,0,-0.0,,,,,,
40.166155414412245,0.81125740642298,123.0,128.60000000000002,90.83301715301019,0.0,0,-0.0,,,,,,
41.166155414412245,0.8222880787017267,124.0,128.60000000000002,90.47959457723837,0.0,0,-0.0,,,,,,
42.166155414412245,0.8333619222333419,125.0,128.60000000000002,90.12617200146656,0.0,0,-0.0,,,,,,
43.166155414412245,0.8444792762682285,126.0,128.60000000000002,89.77274942569474,0.0,0,-0.0,,,,,,
44.166155414412245,0.8556404840714339,127.0,128.60000000000002,89.41932684992292,0.0,0,-0.0,,,,,,
45.166155414412245,0.866845892986246,128.0,128.60000000000002,89.06590427415111,0.0,0,-0.0,,,,,,
46.166155414412245,0.8780958544990535,129.0,128.60000000000002,88.71248169837929,0.0,0,-0.0,,,,,,
47.166155414412245,0.8893907243055004,130.0,128.60000000000002,88.35905912260748,0.0,0,-0.0,,,,,,
48.166155414412245,0.9007308623779667,131.0,128.60000000000002,88.00563654683566,0.0,0,0.0,,,,,,
49.166155414412245,0.9121166330344066,132.0,128.60000000000002,87.65221397106384,0.0,0,0.0,,,,,,
50.166155414412245,0.9235484050085767,133.0,128.60000000000002,87.29879139529203,0.0,0,0.0,,,,,,
51.166155414412245,0.93502655152169,134.0,128.60000000000002,86.94536881952021,0.0,0,0.0,,,,,,
52.166155414412245,0.9465514503555278,135.0,128.60000000000002,86.5919462437484,0.0,0,0.0,,,,,,
53.166155414412245,0.9581234839270475,136.0,128.60000000000002,86.23852366797658,0.0,0,0.0,,,,,,
54.166155414412245,0.9697430393645221,137.0,128.60000000000002,85.88510109220476,0.0,0,0.0,,,,,,
55.166155414412245,0.9814105085852496,138.0,128.60000000000002,85.53167851643295,0.0,0,0.0,,,,,,
56.166155414412245,0.9931262883748709,139.0,128.60000000000002,85.17825594066113,0.0,0,0.0,,,,,,
57.166155414412245,1.0048907804683374,140.0,128.60000000000002,84.82483336488932,0.0,0,0.0,,,,,,
58.166155414412245,1.0167043916325675,141.0,128.60000000000002,84.4714107891175,0.0,0,0.0,,,,,,
59.166155414412245,1.0285675337508378,142.0,128.60000000000002,84.11798821334568,0.0,0,0.0,,,,,,
59.666155414412245,1.0345071498235836,142.5,128.60000000000002,84.24306202162626,0.05532196675859765,0,4.681249863995122,,,,,,
60.666155414412245,1.0463599659390905,143.5,128.60000000000002,84.4932096381874,0.1654767198601269,0,9.348661069862093,,,,,,
61.666155414412245,1.058177742893082,144.5,128.60000000000002,84.74335725474853,0.32998035012537896,0,14.002315195811002,,,,,,
62.666155414412245,1.0699606872396947,145.5,128.60000000000002,84.99350487130967,0.5483541494034752,0,18.642293100822446,,,,,,
63.666155414412245,1.0817090037119925,146.5,128.60000000000002,85.2436524878708,0.820124541487817,0,23.268674933077577,,,,,,
64.66615541441224,1.0934228952433118,147.5,128.60000000000002,85.49380010443194,1.144823014135023,0,27.881540138264953,,,,,,
65.66615541441224,1.105102562988294,148.5,128.60000000000002,85.74394772099308,1.5219860521662294,0,32.48096746776627,,,,,,
66.66615541441224,1.1167482063436116,149.5,128.60000000000002,85.99409533755421,1.951155071630577,0,37.06703498672326,,,,,,
67.66615541441224,1.1283600229683934,150.5,128.60000000000002,86.24424295411535,2.4318763550111204,0,41.63982008198788,,,,,,
68.66615541441224,1.1399382088043544,151.5,128.60000000000002,86.49439057067649,2.9637009874538336,0,46.19939946995761,,,,,,
69.66615541441224,1.151482958095634,152.5,128.60000000000002,86.74453818723762,3.5461847940007716,0,50.745849204297976,,,,,,
70.66615541441224,1.1629944634083502,153.5,128.60000000000002,86.99468580379876,4.178888277808906,0,55.27924468355404,,,,,,
71.66615541441224,1.1744729156498708,154.5,128.60000000000002,87.2448334203599,4.861376559336472,0,59.79966065865319,,,,,,
72.66615541441224,1.1859185040878106,155.5,128.60000000000002,87.49498103692103,5.5932193164791375,0,64.30717124030059,,,,,,
73.66615541441224,1.197331416368757,156.5,128.60000000000002,87.74512865348217,6.373990725638509,0,68.80184990626974,,,,,,
74.66615541441224,1.2087118385367286,157.5,128.60000000000002,87.9952762700433,7.1990975613217625,0,72.91510172078054,,,,,,
75.66615541441224,1.2200599550513722,158.5,128.60000000000002,88.24542388660444,8.021875385434067,0,72.91510172078054,,,,,,
76.66615541441224,1.231375948805902,159.5,128.60000000000002,88.49557150316558,8.842337309070185,0,72.91510172078054,,,,,,
77.66615541441224,1.2426600011447855,160.5,128.60000000000002,88.74571911972672,9.660496332922902,0,72.91510172078054,,,,,,
78.66615541441224,1.2539122918811816,161.5,128.60000000000002,88.99586673628785,10.476365348519089,0,72.91510172078054,,,,,,
79.66615541441224,1.2651329993141323,162.5,128.60000000000002,89.24601435284899,11.289957139438489,0,72.91510172078054,,,,,,
80.66615541441224,1.2763223002455149,163.5,128.60000000000002,89.49616196941012,12.101284382515562,0,72.91510172078054,,,,,,
81.66615541441224,1.2874803699967572,164.5,128.60000000000002,89.74630958597126,12.910359649024658,0,72.91510172078054,,,,,,
82.66615541441224,1.2986073824253204,165.5,128.60000000000002,89.9964572025324,13.717195405848747,0,72.91510172078054,,,,,,
83.66615541441224,1.3097035099409529,166.5,128.60000000000002,90.24660481909353,14.52180401663207,0,72.91510172078054,,,,,,
84.66615541441224,1.3207689235217193,167.5,128.60000000000002,90.49675243565467,15.324197742916892,0,72.91510172078054,,,,,,
85.66615541441224,1.3318037927298083,168.5,128.60000000000002,90.7469000522158,16.12438874526465,0,72.91510172078054,,,,,,
86.66615541441224,1.342808285727123,169.5,128.60000000000002,90.99704766877694,16.92238908436176,0,72.91510172078054,,,,,,
87.66615541441224,1.3537825692906569,170.5,128.60000000000002,91.24719528533808,17.718210722110364,0,72.91510172078054,,,,,,
88.66615541441224,1.3647268088276592,171.5,128.60000000000002,91.49734290189922,18.511865522704163,0,72.91510172078054,,,,,,
89.66615541441224,1.3756411683905945,172.5,128.60000000000002,91.74749051846035,19.26411955797233,0,69.29968179919638,,,,,,
90.66615541441224,1.3865258106918972,173.5,128.60000000000002,91.99763813502149,19.967924592414022,0,65.01248360400704,,,,,,
91.66615541441224,1.3973808971185262,174.5,128.60000000000002,92.24778575158263,20.623667664053034,0,60.736895230310274,,,,,,
92.66615541441224,1.408206587746323,175.5,128.60000000000002,92.49793336814376,21.231732008314076,0,56.47285396865056,,,,,,
93.66615541441224,1.419003041354175,176.5,128.60000000000002,92.7480809847049,21.7924971043222,0,52.22029761628353,,,,,,
94.66615541441224,1.4297704154379887,177.5,128.60000000000002,92.99822860126604,22.306338720523765,0,47.979164471731465,,,,,,
95.66615541441224,1.440508866224475,178.5,128.60000000000002,93.24837621782717,22.773628959640497,0,43.749393329411646,,,,,,
96.66615541441224,1.4512185486847502,179.5,128.60000000000002,93.49852383438831,23.194736302968213,0,39.53092347433662,,,,,,
97.66615541441224,1.461899616547755,180.5,128.60000000000002,93.74867145094944,23.57002565403128,0,35.32369467688491,,,,,,
98.66615541441224,1.4725522223134941,181.5,128.60000000000002,93.99881906751058,23.899858381603902,0,31.127647187641514,,,,,,
99.66615541441224,1.4831765172661013,182.5,128.60000000000002,94.24896668407172,24.18459236210892,0,26.94272173230633,,,,,,
100.66615541441224,1.49377265148673,183.5,128.60000000000002,94.49911430063285,24.4245820214047,0,22.768859506670253,,,,,,
101.66615541441224,1.5043407738662742,184.5,128.60000000000002,94.74926191719399,24.6201783759705,0,18.606002171657295,,,,,,
102.66615541441224,1.5148810321179216,185.5,128.60000000000002,94.99940953375513,24.7717290735004,0,14.454091848431908,,,,,,
103.66615541441224,1.5253935727895418,186.5,128.60000000000002,95.24955715031626,24.879578432915803,0,10.313071113570786,,,,,,
104.66615541441224,1.5358785412759113,187.5,128.60000000000002,95.4997047668774,24.94406748380627,0,6.182882994297302,,,,,,
105.66615541441224,1.5463360818307794,188.5,128.60000000000002,95.74985238343854,25.0,0,2.0634709637784425,,,,,,
106.66615541441224,1.5567663375787768,189.5,128.60000000000002,95.99999999999967,25.0,0,0.0,,,,,,
107.16615541441224,1.561990998215131,190.0,128.6,95.39999123422491,25.0,0,0.0,,,,,,
108.16615541441224,1.5725395233726416,191.0,128.6,94.1999737026754,25.0,0,0.0,,,,,,
109.16615541441224,1.5832232880586021,192.0,128.6,92.99995617112587,25.0,0,0.0,,,,,,
110.16614655810548,1.5940457085714355,192.99999025372617,128.60133413552262,91.79994926729974,25.0,0,0.0,,,,,,
111.16612989152216,1.6050104440555726,193.9998238587436,128.61863816363592,90.5999517359424,25.0,0,0.0,,,,,,
112.16611322493884,1.6161213757884711,194.99911144621484,128.65593407007452,89.39995420458506,25.0,0,0.0,,,,,,
113.16609655835548,1.6273824550139513,195.99745331442847,128.71320693697308,88.19995667322777,25.0,0,0.0,,,,,,
114.16607989177217,1.638797795355462,196.99445013994836,128.7904338559485,86.99995914187042,25.0,0,-0.0,,,,,,
115.16606322518881,1.650371681837153,197.9897031373373,128.8875839372628,85.79996161051314,25.0,0,-0.0,,,,,,
116.16604655860549,1.662108580540241,198.9828142186663,129.00461832217886,84.5999640791558,25.0,0,-0.0,,,,,,
117.16602989202214,1.6740131489491068,199.97338615274407,129.1414901985031,83.3999665477985,25.0,0,-0.0,,,,,,
118.1660132254388,1.686090247047116,200.96102272400447,129.29814481930993,82.19996901644117,25.0,0,-0.0,,,,,,
119.16599655885547,1.6983449492283011,201.94532889098727,129.4745195248397,80.99997148508385,25.0,0,-0.0,,,,,,
120.16597989227216,1.7107825570979782,202.92591094434962,129.67054376756192,79.7999739537265,25.0,0,0.0,,,,,,
121.16596322568881,1.7234086132431012,203.9023766643444,129.88613914039303,78.5999764223692,25.0,0,0.0,,,,,,
122.16594655910548,1.736228916061879,204.87433547770297,130.1212194080585,77.39997889101187,25.0,0,0.0,,,,,,
123.16592989252217,1.7492495357519462,205.84139861385933,130.37569054158564,76.19998135965452,25.0,0,0.0,,,,,,
124.16591322593882,1.7624768315674393,206.80317926045294,130.6494507559139,74.99998382829722,25.0,0,0.0,,,,,,
125.1658965593555,1.7759174704677703,207.75929271804878,130.94239055060768,73.79998629693988,25.0,0,0.0,,,,,,
126.16587989277218,1.7895784472949812,208.70935655401183,131.25439275365488,72.59998876558254,25.0,0,0.0,,,,,,
127.16586322618883,1.8034623446409372,209.652990755475,131.5853325683343,71.44938130670619,25.0,0,0.0,,,,,,
128.1658465596055,1.8175716405584252,210.5898178813394,131.93507762313249,70.2987738478298,25.0,0,0.0,,,,,,
129.16582989302216,1.8319137743007456,211.51946321324547,132.30348802469078,69.14816638895346,25.0,0,0.0,,,,,,
130.16581322643884,1.8464965595985083,212.44155490545563,132.69041641376057,67.99755893007708,25.0,0,0.0,,,,,,
131.16579655985552,1.8613282102224882,213.35572413358733,133.09570802414527,66.8469514712007,25.0,0,0.0,,,,,,
132.16577989327217,1.8764173677655938,214.26160524213807,133.51920074460446,65.69634401232435,25.0,0,0.0,,,,,,
133.16576322668885,1.8917731318792004,215.15883589074275,133.96072518369652,64.54573655344797,25.0,0,0.0,,,,,,
134.1657465601055,1.9074050932287152,216.04705719910478,134.4201047375327,63.395129094571615,25.0,0,0.0,,,,,,
135.16572989352218,1.9233233694672176,216.92591389054365,134.8971556604165,62.24452163569523,25.0,0,-0.0,,,,,,
136.16571322693883,1.939538644565026,217.79505443410068,135.39168713833928,61.09391417681888,25.0,0,-0.0,,,,,,
137.1656965603555,1.9560622118780286,218.65413118514687,135.90350136530355,59.94330671794249,25.0,0,-0.0,,,,,,
138.16567989377216,1.9729060213895306,219.50280052443597,136.43239362244265,58.79269925906614,25.0,0,-0.0,,,,,,
139.16566322718884,1.9900827316205434,220.34072299554774,136.97815235990552,57.64209180018975,25.0,0,-0.0,,,,,,
140.1656465606055,2.0076057667732643,221.16756344066584,137.54055928147386,56.4914843413134,25.0,0,-0.0,,,,,,
141.16562989402217,2.0254893797538744,221.98299113463668,138.11938943187772,55.340876882437016,25.0,0,0.0,,,,,,
142.16561322743883,2.043748721815775,222.78667991725484,138.71441128677452,54.190269423560665,25.0,0,0.0,,,,,,
143.16561322743883,2.06240023386831,223.57140467112248,139.3342556710093,53.03964278766958,25.0,0,0.0,,,,,,
144.16561322743883,2.08146080340398,224.35612942499012,139.95410005524406,51.88901615177849,25.0,0,0.0,,,,,,
145.16561322743883,2.1009487753252087,225.14085417885775,140.57394443947882,50.738389515887405,25.0,0,0.0,,,,,,
146.16561322743883,2.1208837569051666,225.9255789327254,141.1937888237136,49.58776287999632,25.0,0,0.0,,,,,,
147.16561322743883,2.141286736330506,226.71030368659302,141.81363320794836,48.43713624410523,25.0,0,0.0,,,,,,
148.16561322743883,2.1620256350358504,227.49502844046066,142.43347759218312,48.0,25.0,0,0.0,,,,,,
148.545508019942,2.1699775351539556,227.8,142.66,47.54818014834211,25.021718629752606,0,0.9939354293474257,,,,,,
149.545508019942,2.191275194871532,228.43457062669486,143.43286487805833,46.35885125893881,25.06689435315914,0,2.0137014524978705,,,,,,
150.545508019942,2.2131263424524805,229.06914125338972,144.20572975611665,45.169522369535514,25.13744037486404,0,3.0606764730120384,,,,,,
151.545508019942,2.2355605137892978,229.70371188008457,144.97859463417498,43.980193480132215,25.235467027472524,0,4.1363522531127455,,,,,,
152.545508019942,2.2586096737795645,230.33828250677942,145.7514595122333,42.790864590728916,25.363307716932713,0,5.242346694052052,,,,,,
153.545508019942,2.2823084901786554,230.97285313347427,146.52432439029164,41.601535701325616,25.52354911031128,0,6.380418469833543,,,,,,
154.545508019942,2.3066946471654184,231.60742376016913,147.29718926834997,40.41220681192232,25.719066406258175,0,7.552483846442222,,,,,,
155.545508019942,2.331809205738055,232.24199438686398,148.0700541464083,39.22287792251902,25.95306472609681,0,8.760636090321395,,,,,,
156.545508019942,2.357697019591374,232.87656501355883,148.84291902446662,38.03354903311572,26.229127915469586,0,10.00716795961514,,,,,,
157.545508019942,2.3844072170503403,233.51113564025368,149.61578390252495,36.84422014371242,26.551276370080984,0,11.294597885040181,,,,,,
158.545508019942,2.4119937620635605,234.14570626694854,150.38864878058328,35.65489125430912,26.92403591785262,0,12.625700591354672,,,,,,
159.545508019942,2.4405161103481405,234.7802768936434,151.1615136586416,34.46556236490582,27.352520336142884,0,14.003543094975758,,,,,,
160.545508019942,2.4700399807325595,235.41484752033824,151.93437853669994,33.27623347550252,27.84253080165229,0,15.431527251620304,,,,,,
161.545508019942,2.5006382668508773,236.0494181470331,152.70724341475827,32.08690458609922,28.400676525590146,0,16.913440338168908,,,,,,
162.545508019942,2.5323921209911378,236.68398877372795,153.4801082928166,30.897575696695924,29.034522107727387,0,18.45351556071695,,,,,,
163.545508019942,2.5653922506382254,237.3185594004228,154.25297317087492,29.708246807292625,29.729793796966774,0,19.414942883051953,,,,,,
164.545508019942,2.599740479844293,237.95313002711765,155.02583804893325,28.518917917889326,30.455995317461344,0,19.414942883051953,,,,,,
165.545508019942,2.635551643102791,238.5877006538125,155.79870292699158,27.329589028486026,31.216006675791988,0,19.414942883051953,,,,,,
166.545508019942,2.6729559004765533,239.22227128050736,156.5715678050499,26.140260139082727,32.01312977509569,0,19.414942883051953,,,,,,
167.545508019942,2.7121015916541507,239.8568419072022,157.34443268310824,24.950931249679428,32.851175051247615,0,19.414942883051953,,,,,,
168.545508019942,2.7531587868313534,240.49141253389706,158.11729756116657,23.76160236027613,33.73457155083646,0,19.414942883051953,,,,,,
