Distance (in),Time (s),X (in),Y (in),Velocity (in/s),Orientation (deg),Touch,Rotational Velocity (deg/s),Way X (in),Way Y (in),Way Velocity (in/s),Way Orientation (deg),Way Turn Radius (in),Touch this Point
0.0,0.0,282.0,277.6,12.0,0.0,0,0.0,282.0,277.6,12.0,0.0,3.0,0
1.000000000000001,0.07705464824424135,281.0221975859226,277.80952908873087,13.955604828154822,0.0,0,0.0,240.0,286.6,96.0,0.0,10.0,0
2.000000000000002,0.14401860253673288,280.04439517184517,278.0190581774617,15.911209656309644,0.0,0,0.0,130.0,286.6,96.0,0.0,10.0,0
3.0000000000000036,0.2032286969953298,279.06659275776775,278.22858726619256,17.866814484464467,0.0,0,0.0,78.0,275.6,12.0,0.0,3.0,0
4.000000000000004,0.2562942491041327,278.08879034369033,278.4381163549234,19.82241931261929,0.0,0,0.0,,,,,,
5.000000000000005,0.30437065968953136,277.1109879296129,278.64764544365426,21.77802414077411,0.0,0,0.0,,,,,,
6.000000000000006,0.3483154488445006,276.1331855155355,278.8571745323851,23.733628968928933,0.0,0,0.0,,,,,,
7.000000000000007,0.3887825502641167,275.1553831014581,279.06670362111595,25.689233797083755,0.0,0,-0.0,,,,,,
8.000000000000009,0.4262820305993728,274.17758068738067,279.2762327098468,27.644838625238577,0.0,0,-0.0,,,,,,
9.00000000000001,0.46121940757399943,273.19977827330325,279.48576179857764,29.600443453393403,0.0,0,-0.0,,,,,,
10.000000000000012,0.4939223953233328,272.22197585922584,279.6952908873085,31.55604828154823,0.0,0,-0.0,,,,,,
11.000000000000014,0.5246596114418803,271.2441734451484,279.90481997603933,33.511653109703055,0.0,0,-0.0,,,,,,
12.000000000000016,0.5536539804399789,270.266371031071,280.1143490647702,35.46725793785788,0.0,0,-0.0,,,,,,
13.000000000000018,0.5810925411212731,269.2885686169936,280.323878153501,37.422862766012706,0.0,0,-0.0,,,,,,
14.00000000000002,0.6071337566916346,268.31076620291617,280.5334072422319,39.37846759416753,0.0,0,-0.0,,,,,,
15.000000000000021,0.6319130536830487,267.33296378883875,280.7429363309627,41.33407242232236,0.0,0,-0.0,,,,,,
16.00000000000002,0.655547080864934,266.35516137476134,280.95246541969357,43.289677250477176,0.0,0,-0.0,,,,,,
17.00000000000002,0.6781370274256528,265.3773589606839,281.1619945084244,45.245282078631995,0.0,0,-0.0,,,,,,
18.00000000000002,0.6997712392264194,264.3995565466065,281.37152359715526,47.20088690678681,0.0,0,0.0,,,,,,
19.00000000000002,0.7205273040778337,263.4217541325291,281.5810526858861,49.15649173494163,0.0,0,0.0,,,,,,
20.00000000000002,0.7404737303110944,262.4439517184517,281.79058177461695,51.11209656309645,0.0,0,0.0,,,,,,
21.00000000000002,0.7596713102572219,261.46614930437426,282.0001108633478,53.06770139125127,0.0,0,0.0,,,,,,
22.00000000000002,0.778174237042806,260.48834689029684,282.20963995207865,55.02330621940609,0.0,0,0.0,,,,,,
23.00000000000002,0.7960310263886171,259.5105444762194,282.4191690408095,56.978911047560906,0.0,0,0.0,,,,,,
24.00000000000002,0.8132852828892364,258.532742062142,282.62869812954034,58.934515875715725,0.0,0,0.0,,,,,,
25.00000000000002,0.82997634123158,257.5549396480646,282.8382272182712,60.890120703870544,0.0,0,0.0,,,,,,
26.00000000000002,0.846139806070921,256.5771372339872,283.04775630700203,62.84572553202536,0.0,0,0.0,,,,,,
27.00000000000002,0.8618080091957071,255.59933481990976,283.2572853957329,64.80133036018019,0.0,0,0.0,,,,,,
28.00000000000002,0.8770103987351349,254.62153240583234,283.4668144844637,66.756935188335,0.0,0,0.0,,,,,,
29.00000000000002,0.8917738721816517,253.64372999175492,283.6763435731946,68.71254001648983,0.0,0,0.0,,,,,,
30.00000000000002,0.9061230626881599,252.6659275776775,283.8858726619254,70.66814484464464,0.0,0,0.0,,,,,,
31.00000000000002,0.9200805862922359,251.6881251636001,284.09540175065626,72.62374967279946,0.0,0,0.0,,,,,,
32.00000000000002,0.9336672562964178,250.71032274952267,284.3049308393871,74.57935450095428,0.0,0,0.0,,,,,,
33.00000000000002,0.9469022699050499,249.73252033544526,284.51445992811796,76.5349593291091,0.0,0,0.0,,,,,,
34.00000000000002,0.9598033713173977,248.75471792136784,284.7239890168488,78.49056415726392,0.0,0,0.0,,,,,,
35.00000000000002,0.9723869947532999,247.77691550729043,284.93351810557965,80.44616898541874,0.0,0,0.0,,,,,,
36.00000000000002,0.9846683903031882,246.799113093213,285.1430471943105,82.40177381357356,0.0,0,0.0,,,,,,
37.00000000000002,0.9966617350195214,245.8213106791356,285.35257628304134,84.35737864172837,0.0,0,0.0,,,,,,
38.00000000000002,1.0083802312789485,244.84350826505818,285.5621053717722,86.31298346988319,0.0,0,0.0,,,,,,
39.00000000000002,1.0198361941262684,243.86570585098076,285.77163446050304,88.26858829803801,0.0,0,0.0,,,,,,
40.00000000000002,1.031041129048799,242.88790343690334,285.9811635492339,90.22419312619283,0.0,0,0.0,,,,,,
41.00000000000002,1.042005801412338,241.91010102282593,286.19069263796473,92.17979795434765,0.0,0,0.0,,,,,,
42.00000000000002,1.0527402986089718,240.9322986087485,286.4002217266956,94.13540278250247,0.0,0,0.0,,,,,,
42.95346318982903,1.0628051332866453,240.0,286.6,95.32884980855951,0.0,0,0.0,,,,,,
43.95346318982903,1.0732583399096987,239.0,286.6,96.0,0.0,0,0.0,,,,,,
44.95346318982903,1.0836750065763654,238.0,286.6,96.0,0.0,0,0.0,,,,,,
45.95346318982903,1.0940916732430321,237.0,286.6,96.0,0.0,0,0.0,,,,,,
46.95346318982903,1.1045083399096989,236.0,286.6,96.0,0.0,0,0.0,,,,,,
47.95346318982903,1.1149250065763656,235.0,286.6,96.0,0.0,0,0.0,,,,,,
48.95346318982903,1.1253416732430324,234.0,286.6,96.0,0.0,0,0.0,,,,,,
49.95346318982903,1.135758339909699,233.0,286.6,96.0,0.0,0,0.0,,,,,,
50.95346318982903,1.1461750065763658,232.0,286.6,96.0,0.0,0,0.0,,,,,,
51.95346318982903,1.1565916732430326,231.0,286.6,96.0,0.0,0,0.0,,,,,,
52.95346318982903,1.1670083399096993,230.0,286.6,96.0,0.0,0,0.0,,,,,,
53.95346318982903,1.177425006576366,229.0,286.6,96.0,0.0,0,0.0,,,,,,
54.95346318982903,1.1878416732430328,228.0,286.6,96.0,0.0,0,0.0,,,,,,
55.95346318982903,1.1982583399096995,227.0,286.6,96.0,0.0,0,0.0,,,,,,
56.95346318982903,1.2086750065763663,226.0,286.6,96.0,0.0,0,0.0,,,,,,
57.95346318982903,1.219091673243033,225.0,286.6,96.0,0.0,0,0.0,,,,,,
58.95346318982903,1.2295083399096998,224.0,286.6,96.0,0.0,0,0.0,,,,,,
59.95346318982903,1.2399250065763665,223.0,286.6,96.0,0.0,0,0.0,,,,,,
60.95346318982903,1.2503416732430332,222.0,286.6,96.0,0.0,0,0.0,,,,,,
61.95346318982903,1.2607583399097,221.0,286.6,96.0,0.0,0,0.0,,,,,,
62.95346318982903,1.2711750065763667,220.0,286.6,96.0,0.0,0,0.0,,,,,,
63.95346318982903,1.2815916732430335,219.0,286.6,96.0,0.0,0,0.0,,,,,,
64.95346318982902,1.2920083399097,218.0,286.6,96.0,0.0,0,0.0,,,,,,
65.95346318982902,1.3024250065763667,217.0,286.6,96.0,0.0,0,0.0,,,,,,
66.95346318982902,1.3128416732430335,216.0,286.6,96.0,0.0,0,0.0,,,,,,
67.95346318982902,1.3232583399097002,215.0,286.6,96.0,0.0,0,0.0,,,,,,
68.95346318982902,1.333675006576367,214.0,286.6,96.0,0.0,0,0.0,,,,,,
69.95346318982902,1.3440916732430337,213.0,286.6,96.0,0.0,0,0.0,,,,,,
70.95346318982902,1.3545083399097004,212.0,286.6,96.0,0.0,0,0.0,,,,,,
71.95346318982902,1.3649250065763672,211.0,286.6,96.0,0.0,0,0.0,,,,,,
72.95346318982902,1.375341673243034,210.0,286.6,96.0,0.0,0,0.0,,,,,,
73.95346318982902,1.3857583399097007,209.0,286.6,96.0,0.0,0,0.0,,,,,,
74.95346318982902,1.3961750065763674,208.0,286.6,96.0,0.0,0,0.0,,,,,,
75.95346318982902,1.4065916732430341,207.0,286.6,96.0,0.0,0,0.0,,,,,,
76.95346318982902,1.4170083399097009,206.0,286.6,96.0,0.0,0,0.0,,,,,,
77.95346318982902,1.4274250065763676,205.0,286.6,96.0,0.0,0,0.0,,,,,,
78.95346318982902,1.4378416732430344,204.0,286.6,96.0,0.0,0,0.0,,,,,,
79.95346318982902,1.448258339909701,203.0,286.6,96.0,0.0,0,0.0,,,,,,
80.95346318982902,1.4586750065763678,202.0,286.6,96.0,0.0,0,-0.0,,,,,,
81.95346318982902,1.4690916732430346,201.0,286.6,96.0,0.0,0,-0.0,,,,,,
82.95346318982902,1.4795083399097013,200.0,286.6,96.0,0.0,0,-0.0,,,,,,
83.95346318982902,1.489925006576368,199.0,286.6,96.0,0.0,0,-0.0,,,,,,
84.95346318982902,1.5003416732430348,198.0,286.6,96.0,0.0,0,-0.0,,,,,,
85.95346318982902,1.5107583399097015,197.0,286.6,96.0,0.0,0,-0.0,,,,,,
86.95346318982902,1.5211750065763683,196.0,286.6,96.0,0.0,0,-0.0,,,,,,
87.95346318982902,1.531591673243035,195.0,286.6,96.0,0.0,0,-0.0,,,,,,
88.95346318982902,1.5420083399097018,194.0,286.6,96.0,0.0,0,-0.0,,,,,,
89.95346318982902,1.5524250065763685,193.0,286.6,96.0,0.0,0,-0.0,,,,,,
90.95346318982902,1.5628416732430352,192.0,286.6,96.0,0.0,0,-0.0,,,,,,
91.95346318982902,1.573258339909702,191.0,286.6,96.0,0.0,0,-0.0,,,,,,
92.95346318982902,1.5836750065763687,190.0,286.6,96.0,0.0,0,-0.0,,,,,,
93.95346318982902,1.5940916732430355,189.0,286.6,96.0,0.0,0,-0.0,,,,,,
94.95346318982902,1.6045083399097022,188.0,286.6,96.0,0.0,0,-0.0,,,,,,
95.95346318982902,1.614925006576369,187.0,286.6,96.0,0.0,0,-0.0,,,,,,
96.95346318982902,1.6253416732430357,186.0,286.6,96.0,0.0,0,-0.0,,,,,,
97.95346318982902,1.6357583399097024,185.0,286.6,96.0,0.0,0,-0.0,,,,,,
98.95346318982902,1.6461750065763692,184.0,286.6,96.0,0.0,0,-0.0,,,,,,
99.95346318982902,1.656591673243036,183.0,286.6,96.0,0.0,0,-0.0,,,,,,
100.95346318982902,1.6670083399097027,182.0,286.6,96.0,0.0,0,-0.0,,,,,,
101.95346318982902,1.6774250065763694,181.0,286.6,96.0,0.0,0,-0.0,,,,,,
102.95346318982902,1.6878416732430361,180.0,286.6,96.0,0.0,0,-0.0,,,,,,
103.95346318982902,1.6982583399097029,179.0,286.6,96.0,0.0,0,-0.0,,,,,,
104.95346318982902,1.7086750065763696,178.0,286.6,96.0,0.0,0,-0.0,,,,,,
105.95346318982902,1.7190916732430364,177.0,286.6,96.0,0.0,0,-0.0,,,,,,
106.95346318982902,1.729508339909703,176.0,286.6,96.0,0.0,0,-0.0,,,,,,
107.95346318982902,1.7399250065763698,175.0,286.6,96.0,0.0,0,-0.0,,,,,,
108.95346318982902,1.7503416732430366,174.0,286.6,96.0,0.0,0,-0.0,,,,,,
109.95346318982902,1.7607583399097033,173.0,286.6,96.0,0.0,0,-0.0,,,,,,
110.95346318982902,1.77117500657637,172.0,286.6,96.0,0.0,0,-0.0,,,,,,
111.95346318982902,1.7815916732430368,171.0,286.6,96.0,0.0,0,-0.0,,,,,,
112.95346318982902,1.7920083399097035,170.0,286.6,96.0,0.0,0,-0.0,,,,,,
113.95346318982902,1.8024250065763703,169.0,286.6,96.0,0.0,0,0.0,,,,,,
114.95346318982902,1.812841673243037,168.0,286.6,96.0,0.0,0,0.0,,,,,,
115.95346318982902,1.8232583399097038,167.0,286.6,96.0,0.0,0,0.0,,,,,,
116.95346318982902,1.8336750065763705,166.0,286.6,96.0,0.0,0,0.0,,,,,,
117.95346318982902,1.8440916732430372,165.0,286.6,96.0,0.0,0,0.0,,,,,,
118.95346318982902,1.854508339909704,164.0,286.6,96.0,0.0,0,0.0,,,,,,
119.95346318982902,1.8649250065763707,163.0,286.6,96.0,0.0,0,0.0,,,,,,
120.95346318982902,1.8753416732430375,162.0,286.6,96.0,0.0,0,0.0,,,,,,
121.95346318982902,1.8857583399097042,161.0,286.6,96.0,0.0,0,0.0,,,,,,
122.95346318982902,1.896175006576371,160.0,286.6,96.0,0.0,0,0.0,,,,,,
123.95346318982902,1.9065916732430377,159.0,286.6,96.0,0.0,0,0.0,,,,,,
124.95346318982902,1.9170083399097044,158.0,286.6,96.0,0.0,0,0.0,,,,,,
125.95346318982902,1.9274250065763712,157.0,286.6,96.0,0.0,0,0.0,,,,,,
126.95346318982902,1.937841673243038,156.0,286.6,96.0,0.0,0,0.0,,,,,,
127.95346318982902,1.9482583399097047,155.0,286.6,96.0,0.0,0,0.0,,,,,,
128.95346318982902,1.9586750065763714,154.0,286.6,96.0,0.0,0,0.0,,,,,,
129.95346318982902,1.9690916732430381,153.0,286.6,96.0,0.0,0,0.0,,,,,,
130.95346318982902,1.9795083399097049,152.0,286.6,96.0,0.0,0,0.0,,,,,,
131.95346318982902,1.9899250065763716,151.0,286.6,96.0,0.0,0,0.0,,,,,,
132.95346318982902,2.0003416732430384,150.0,286.6,96.0,0.0,0,0.0,,,,,,
133.95346318982902,2.010758339909705,149.0,286.6,96.0,0.0,0,0.0,,,,,,
134.95346318982902,2.0211750065763714,148.0,286.6,96.0,0.0,0,0.0,,,,,,
135.95346318982902,2.031591673243038,147.0,286.6,96.0,0.0,0,0.0,,,,,,
136.95346318982902,2.0420083399097044,146.0,286.6,96.0,0.0,0,0.0,,,,,,
137.95346318982902,2.052425006576371,145.0,286.6,96.0,0.0,0,0.0,,,,,,
138.95346318982902,2.0628416732430375,144.0,286.6,96.0,0.0,0,0.0,,,,,,
139.95346318982902,2.073258339909704,143.0,286.6,96.0,0.0,0,0.0,,,,,,
140.95346318982902,2.0836750065763705,142.0,286.6,96.0,0.0,0,0.0,,,,,,
141.95346318982902,2.094091673243037,141.0,286.6,96.0,0.0,0,0.0,,,,,,
142.95346318982902,2.1045083399097035,140.0,286.6,96.0,0.0,0,0.0,,,,,,
143.95346318982902,2.11492500657637,139.0,286.6,96.0,0.0,0,0.0,,,,,,
144.95346318982902,2.1253416732430366,138.0,286.6,96.0,0.0,0,0.0,,,,,,
145.95346318982902,2.135758339909703,137.0,286.6,96.0,0.0,0,0.0,,,,,,
146.95346318982902,2.1461750065763696,136.0,286.6,96.0,0.0,0,0.0,,,,,,
147.95346318982902,2.156591673243036,135.0,286.6,96.0,0.0,0,0.0,,,,,,
148.95346318982902,2.1670083399097027,134.0,286.6,96.0,0.0,0,0.0,,,,,,
149.95346318982902,2.177425006576369,133.0,286.6,96.0,0.0,0,0.0,,,,,,
150.95346318982902,2.1878416732430357,132.0,286.6,96.0,0.0,0,0.0,,,,,,
151.95346318982902,2.198258339909702,131.0,286.6,96.0,0.0,0,0.0,,,,,,
152.95346318982902,2.2087614609967794,130.0,286.6,94.41958894111555,0.0,0,0.0,,,,,,
153.95346318982902,2.219441868829897,129.02165029688106,286.39304140895564,92.8391778822311,0.0,0,0.0,,,,,,
154.95346318982902,2.2303056511670576,128.04330059376213,286.18608281791126,91.25876682334665,0.0,0,0.0,,,,,,
155.95346318982902,2.241359214810579,127.06495089064319,285.9791242268669,89.6783557644622,0.0,0,0.0,,,,,,
156.95346318982902,2.2526093082972363,126.08660118752425,285.7721656358225,88.09794470557775,0.0,0,0.0,,,,,,
157.95346318982902,2.264063046642042,125.10825148440532,285.5652070447781,86.5175336466933,0.0,0,0.0,,,,,,
158.95346318982902,2.2757279383628277,124.12990178128638,285.3582484537337,84.93712258780884,0.0,0,0.0,,,,,,
159.95346318982902,2.287611915042643,123.15155207816744,285.15128986268934,83.3567115289244,0.0,0,0.0,,,,,,
160.95346318982902,2.2997233637214363,122.1732023750485,284.94433127164496,81.77630047003994,0.0,0,0.0,,,,,,
161.95346318982902,2.3120711624482855,121.19485267192957,284.7373726806006,80.19588941115549,0.0,0,0.0,,,,,,
162.95346318982902,2.3246647193716115,120.21650296881063,284.5304140895562,78.61547835227104,0.0,0,0.0,,,,,,
163.95346318982902,2.3375140157984484,119.2381532656917,284.3234554985118,77.03506729338659,0.0,0,0.0,,,,,,
164.95346318982902,2.350629653716398,118.25980356257276,284.1164969074674,75.45465623450214,0.0,0,0.0,,,,,,
165.95346318982902,2.3640229083450324,117.28145385945382,283.90953831642304,73.87424517561769,0.0,0,0.0,,,,,,
166.95346318982902,2.377705786369309,116.30310415633488,283.70257972537865,72.29383411673324,0.0,0,0.0,,,,,,
167.95346318982902,2.3916910906085085,115.32475445321595,283.49562113433427,70.71342305784879,0.0,0,0.0,,,,,,
168.95346318982902,2.4059924919934454,114.34640475009701,283.2886625432899,69.13301199896434,0.0,0,0.0,,,,,,
169.95346318982902,2.4206246098659525,113.36805504697807,283.0817039522455,67.55260094007988,0.0,0,0.0,,,,,,
170.95346318982902,2.435603101782686,112.38970534385913,282.8747453612011,65.97218988119543,0.0,0,0.0,,,,,,
171.95346318982902,2.450944764205903,111.4113556407402,282.66778677015674,64.39177882231098,0.0,0,0.0,,,,,,
172.95346318982902,2.4666676457043724,110.43300593762126,282.46082817911235,62.81136776342654,0.0,0,0.0,,,,,,
173.95346318982902,2.4827911745771036,109.45465623450232,282.25386958806797,61.230956704542095,0.0,0,0.0,,,,,,
174.95346318982902,2.499336303162666,108.47630653138339,282.0469109970236,59.65054564565765,0.0,0,0.0,,,,,,
175.95346318982902,2.5163256715221687,107.49795682826445,281.8399524059792,58.07013458677321,0.0,0,0.0,,,,,,
176.95346318982902,2.533783793703136,106.51960712514551,281.6329938149348,56.48972352788876,0.0,0,0.0,,,,,,
177.95346318982902,2.5517372704285157,105.54125742202658,281.42603522389044,54.90931246900432,0.0,0,0.0,,,,,,
178.95346318982902,2.5702150328409066,104.56290771890764,281.21907663284605,53.328901410119876,0.0,0,0.0,,,,,,
179.95346318982902,2.5892486229070006,103.5845580157887,281.01211804180167,51.74849035123543,0.0,0,0.0,,,,,,
180.95346318982902,2.6088725173040963,102.60620831266976,280.8051594507573,50.16807929235099,0.0,0,0.0,,,,,,
181.95346318982902,2.629124503138917,101.62785860955083,280.5982008597129,48.587668233466545,0.0,0,0.0,,,,,,
182.95346318982902,2.6500461157816697,100.64950890643189,280.3912422686685,47.0072571745821,0.0,0,0.0,,,,,,
183.95346318982902,2.6716831515596793,99.67115920331295,280.18428367762414,45.42684611569766,0.0,0,0.0,,,,,,
184.95346318982902,2.6940862712135343,98.69280950019402,279.97732508657975,43.84643505681321,0.0,0,-0.0,,,,,,
185.95346318982902,2.7173117141047727,97.71445979707508,279.77036649553537,42.26602399792877,0.0,0,-0.0,,,,,,
186.95346318982902,2.7414221484958334,96.73611009395614,279.563407904491,40.685612939044326,0.0,0,-0.0,,,,,,
187.95346318982902,2.7664876902443636,95.7577603908372,279.3564493134466,39.10520188015988,0.0,0,-0.0,,,,,,
188.95346318982902,2.792587131592249,94.77941068771827,279.1494907224022,37.52479082127544,0.0,0,-0.0,,,,,,
189.95346318982902,2.819809434282088,93.80106098459933,278.94253213135784,35.944379762390994,0.0,0,-0.0,,,,,,
190.95346318982902,2.848255558300633,92.8227112814804,278.73557354031345,34.36396870350655,0.0,0,-0.0,,,,,,
191.95346318982902,2.878040721042607,91.84436157836146,278.52861494926907,32.78355764462211,0.0,0,-0.0,,,,,,
192.95346318982902,2.909297214466612,90.86601187524252,278.3216563582247,31.203146585737663,0.0,0,-0.0,,,,,,
193.95346318982902,2.942177954219764,89.88766217212358,278.1146977671803,29.62273552685322,0.0,0,-0.0,,,,,,
194.95346318982902,2.9768610014615358,88.90931246900465,277.9077391761359,28.042324467968776,0.0,0,-0.0,,,,,,
195.95346318982902,3.0135553958407666,87.93096276588571,277.70078058509154,26.46191340908433,0.0,0,-0.0,,,,,,
196.95346318982902,3.0525087839319816,86.95261306276677,277.49382199404715,24.881502350199888,0.0,0,-0.0,,,,,,
197.95346318982902,3.094017549833632,85.97426335964784,277.28686340300277,23.301091291315444,0.0,0,0.0,,,,,,
198.95346318982902,3.1384405019368184,84.9959136565289,277.0799048119584,21.720680232431,0.0,0,0.0,,,,,,
199.95346318982902,3.1862177269730574,84.01756395340996,276.872946220914,20.140269173546557,0.0,0,0.0,,,,,,
200.95346318982902,3.2378971435575443,83.03921425029102,276.6659876298696,18.559858114662113,0.0,0,0.0,,,,,,
201.95346318982902,3.2941728639299144,82.06086454717209,276.45902903882524,16.97944705577767,0.0,0,0.0,,,,,,
202.95346318982902,3.3559422802656504,81.08251484405315,276.25207044778085,15.399035996893225,0.0,0,0.0,,,,,,
203.95346318982902,3.4243940295160806,80.10416514093421,276.04511185673647,13.818624938008782,0.0,0,0.0,,,,,,
204.95346318982902,3.501149311077133,79.12581543781528,275.8381532656921,12.238213879124338,0.0,0,0.0,,,,,,
205.95346318982902,3.5836636419586894,78.14746573469634,275.6311946746477,12.0,0.0,0,0.0,,,,,,
206.1041922535026,3.59622439726482,78.0,275.6,12.0,0.0,0,0.0,,,,,,
