Distance (in),Time (s),X (in),Y (in),Velocity (in/s),Orientation (deg),Touch,Rotational Velocity (deg/s),Way X (in),Way Y (in),Way Velocity (in/s),Way Orientation (deg),Way Turn Radius (in),Touch this Point
0.0,0.0,74.0,142.0,12.0,0.0,0,0.0,74.0,142.0,12.0,0.0,3.0,0.0
1.0,0.07575527966470658,74.0,141.0,14.400800166694847,0.0,0,0.0,74.0,130.0,36.0,0.0,10.0,0
2.0,0.1398529121527769,74.0,140.0,16.801600333389693,0.0,0,0.0,170.0,130.0,192.0,0.0,3.0,0.0
2.9995833854135676,0.1953806941741752,74.04995834721974,139.00166583353172,19.201400291715984,0.0,0,-0.0,230.0,130.0,0.0,0.0,3.0,0.0
3.999166770827137,0.24437675678496756,74.19933422158758,138.01330669204938,21.60120025004228,0.0,0,-0.0,,,,,,
4.998750156240702,0.28821601784541506,74.44663510874395,137.0447979333866,24.001000208368566,0.0,0,0.0,,,,,,
5.998333541654266,0.327880608315406,74.78939005997115,136.1058165769135,26.400800166694847,0.0,0,0.0,,,,,,
6.997916927067842,0.3640964789321368,75.22417438109628,135.20574461395796,28.80060012502116,0.0,0,0.0,,,,,,
7.997500312481409,0.39741536968203306,75.74664385090321,134.35357526604963,31.20040008334745,0.0,0,0.0,,,,,,
8.997083697894967,0.42826642302058365,76.35157812715512,133.5578231276231,33.600200041673716,0.0,0,0.0,,,,,,
9.996667083308532,0.4574593018898931,77.03293290652834,132.82643909100477,34.881116233332676,0.0,0,0.0,,,,,,
10.996250468722112,0.48559947879058163,77.78390031729336,132.16673090372515,36.16203242499166,0.0,0,0.0,,,,,,
11.995833854135661,0.5127602326218483,78.5969769413186,131.58529015192104,37.4429486166506,0.0,0,0.0,,,,,,
12.995417239549226,0.5390074481863634,79.46403878574422,131.08792639938565,38.72386480830956,0.0,0,0.0,,,,,,
13.995000624962792,0.5644005786067132,80.37642245523325,130.67960914032773,40.00478099996852,0.0,0,0.0,,,,,,
14.99458401037635,0.588993456091272,81.32501171375411,130.36441814582807,41.28569719162747,0.0,0,0.0,,,,,,
15.99416739578992,0.6128349788486095,82.30032857099758,130.1455027001154,42.56661338328644,0.0,0,0.0,,,,,,
16.994167395789923,0.6359791954723343,83.30032857099758,130.1455027001154,43.8480634457332,0.0,0,0.0,,,,,,
17.994167395789923,0.6584567686819972,84.30032857099758,130.1455027001154,45.12951350817997,0.0,0,0.0,,,,,,
18.994167395789923,0.6803050271117431,85.30032857099758,130.1455027001154,46.410963570626734,0.0,0,0.0,,,,,,
19.994167395789923,0.7015582494660345,86.30032857099758,130.1455027001154,47.6924136330735,0.0,0,0.0,,,,,,
20.994167395789923,0.7222479879691681,87.30032857099758,130.1455027001154,48.973863695520265,0.0,0,0.0,,,,,,
21.994167395789923,0.7424033500443751,88.30032857099758,130.1455027001154,50.25531375796703,0.0,0,0.0,,,,,,
22.994167395789923,0.7620512445326272,89.30032857099758,130.1455027001154,51.536763820413796,0.0,0,0.0,,,,,,
23.994167395789923,0.7812165976764595,90.30032857099758,130.1455027001154,52.81821388286056,0.0,0,0.0,,,,,,
24.994167395789923,0.7999225432173379,91.30032857099758,130.1455027001154,54.09966394530733,0.0,0,0.0,,,,,,
25.994167395789923,0.8181905902425196,92.30032857099758,130.1455027001154,55.38111400775409,0.0,0,0.0,,,,,,
26.994167395789923,0.8360407718351703,93.30032857099758,130.1455027001154,56.66256407020086,0.0,0,0.0,,,,,,
27.994167395789923,0.8534917771034726,94.30032857099758,130.1455027001154,57.944014132647624,0.0,0,-0.0,,,,,,
28.994167395789923,0.870561068770076,95.30032857099758,130.1455027001154,59.22546419509439,0.0,0,-0.0,,,,,,
29.994167395789923,0.8872649881763974,96.30032857099758,130.1455027001154,60.506914257541155,0.0,0,-0.0,,,,,,
30.994167395789923,0.9036188492842251,97.30032857099758,130.1455027001154,61.78836431998792,0.0,0,-0.0,,,,,,
31.994167395789923,0.9196370230297083,98.30032857099758,130.1455027001154,63.069814382434686,0.0,0,-0.0,,,,,,
32.99416739578992,0.9353330131940236,99.30032857099758,130.1455027001154,64.35126444488145,0.0,0,-0.0,,,,,,
33.99416739578992,0.9507195247943134,100.30032857099758,130.1455027001154,65.63271450732822,0.0,0,-0.0,,,,,,
34.99416739578992,0.9658085258626569,101.30032857099758,130.1455027001154,66.91416456977498,0.0,0,-0.0,,,,,,
35.99416739578992,0.9806113033656079,102.30032857099758,130.1455027001154,68.19561463222175,0.0,0,-0.0,,,,,,
36.99416739578992,0.9951385139187722,103.30032857099758,130.1455027001154,69.47706469466851,0.0,0,-0.0,,,,,,
37.99416739578992,1.0094002298671678,104.30032857099758,130.1455027001154,70.75851475711528,0.0,0,-0.0,,,,,,
38.99416739578992,1.0234059812304104,105.30032857099758,130.1455027001154,72.03996481956204,0.0,0,-0.0,,,,,,
39.99416739578992,1.0371647939501716,106.30032857099758,130.1455027001154,73.32141488200881,0.0,0,-0.0,,,,,,
40.99416739578992,1.0506852248243073,107.30032857099758,130.1455027001154,74.60286494445558,0.0,0,-0.0,,,,,,
41.99416739578992,1.063975393466224,108.30032857099758,130.1455027001154,75.88431500690234,0.0,0,-0.0,,,,,,
42.99416739578992,1.0770430115883678,109.30032857099758,130.1455027001154,77.1657650693491,0.0,0,-0.0,,,,,,
43.99416739578992,1.0898954098742615,110.30032857099758,130.1455027001154,78.44721513179587,0.0,0,-0.0,,,,,,
44.99416739578992,1.1025395626735222,111.30032857099758,130.1455027001154,79.72866519424264,0.0,0,-0.0,,,,,,
45.99416739578992,1.1149821107281312,112.30032857099758,130.1455027001154,81.0101152566894,0.0,0,-0.0,,,,,,
46.99416739578992,1.1272293821153436,113.30032857099758,130.1455027001154,82.29156531913617,0.0,0,-0.0,,,,,,
47.99416739578992,1.1392874115725713,114.30032857099758,130.1455027001154,83.57301538158293,0.0,0,-0.0,,,,,,
48.99416739578992,1.1511619583519699,115.30032857099758,130.1455027001154,84.8544654440297,0.0,0,-0.0,,,,,,
49.99416739578992,1.1628585227369508,116.30032857099758,130.1455027001154,86.13591550647646,0.0,0,-0.0,,,,,,
50.99416739578992,1.1743823613391786,117.30032857099758,130.1455027001154,87.41736556892323,0.0,0,-0.0,,,,,,
51.99416739578992,1.1857385012825348,118.30032857099758,130.1455027001154,88.69881563137,0.0,0,-0.0,,,,,,
52.99416739578992,1.1969317533698347,119.30032857099758,130.1455027001154,89.98026569381676,0.0,0,-0.0,,,,,,
53.99416739578992,1.2079667243186094,120.30032857099758,130.1455027001154,91.26171575626353,0.0,0,0.0,,,,,,
54.99416739578992,1.2188478281438317,121.30032857099758,130.1455027001154,92.54316581871029,0.0,0,0.0,,,,,,
55.99416739578992,1.229579296757977,122.30032857099758,130.1455027001154,93.82461588115706,0.0,0,0.0,,,,,,
56.99416739578992,1.2401651898521175,123.30032857099758,130.1455027001154,95.10606594360382,0.0,0,0.0,,,,,,
57.99416739578992,1.2506094041157885,124.30032857099758,130.1455027001154,96.38751600605059,0.0,0,0.0,,,,,,
58.99416739578992,1.2609156818480194,125.30032857099758,130.1455027001154,97.66896606849735,0.0,0,0.0,,,,,,
59.99416739578992,1.271087619007151,126.30032857099758,130.1455027001154,98.95041613094412,0.0,0,0.0,,,,,,
60.99416739578992,1.2811286727427604,127.30032857099758,130.1455027001154,100.23186619339089,0.0,0,0.0,,,,,,
61.99416739578992,1.2910421684491737,128.30032857099758,130.1455027001154,101.51331625583765,0.0,0,0.0,,,,,,
62.99416739578992,1.3008313063765702,129.30032857099758,130.1455027001154,102.79476631828442,0.0,0,0.0,,,,,,
63.99416739578992,1.310499167832567,130.30032857099758,130.1455027001154,104.07621638073118,0.0,0,0.0,,,,,,
64.99416739578993,1.3200487210043506,131.30032857099758,130.1455027001154,105.35766644317796,0.0,0,0.0,,,,,,
65.99416739578993,1.3294828264288796,132.30032857099758,130.1455027001154,106.63911650562473,0.0,0,0.0,,,,,,
66.99416739578993,1.3388042421363826,133.30032857099758,130.1455027001154,107.9205665680715,0.0,0,0.0,,,,,,
67.99416739578993,1.348015628490287,134.30032857099758,130.1455027001154,109.20201663051826,0.0,0,0.0,,,,,,
68.99416739578993,1.3571195527448316,135.30032857099758,130.1455027001154,110.48346669296502,0.0,0,0.0,,,,,,
69.99416739578993,1.3661184933398913,136.30032857099758,130.1455027001154,111.76491675541179,0.0,0,0.0,,,,,,
70.99416739578993,1.3750148439509946,137.30032857099758,130.1455027001154,113.04636681785856,0.0,0,0.0,,,,,,
71.99416739578993,1.3838109173110862,138.30032857099758,130.1455027001154,114.32781688030532,0.0,0,0.0,,,,,,
72.99416739578993,1.392508948819301,139.30032857099758,130.1455027001154,115.60926694275209,0.0,0,0.0,,,,,,
73.99416739578993,1.4011110999508372,140.30032857099758,130.1455027001154,116.89071700519885,0.0,0,0.0,,,,,,
74.99416739578993,1.4096194614809383,141.30032857099758,130.1455027001154,118.17216706764562,0.0,0,0.0,,,,,,
75.99416739578993,1.4180360565350159,142.30032857099758,130.1455027001154,119.45361713009238,0.0,0,0.0,,,,,,
76.99416739578993,1.4263628434760423,143.30032857099758,130.1455027001154,120.73506719253915,0.0,0,0.0,,,,,,
77.99416739578993,1.4346017186395217,144.30032857099758,130.1455027001154,122.01651725498591,0.0,0,0.0,,,,,,
78.99416739578993,1.4427545189255953,145.30032857099758,130.1455027001154,123.29796731743268,0.0,0,0.0,,,,,,
79.99416739578993,1.4508230242571414,146.30032857099758,130.1455027001154,124.57941737987944,0.0,0,0.0,,,,,,
80.99416739578993,1.4588089599121015,147.30032857099758,130.1455027001154,125.86086744232621,0.0,0,0.0,,,,,,
81.99416739578993,1.4667139987376727,148.30032857099758,130.1455027001154,127.14231750477298,0.0,0,0.0,,,,,,
82.99416739578993,1.4745397632534794,149.30032857099758,130.1455027001154,128.42376756721973,0.0,0,0.0,,,,,,
83.99416739578993,1.482287827650333,150.30032857099758,130.1455027001154,129.7052176296665,0.0,0,0.0,,,,,,
84.99416739578993,1.4899597196907444,151.30032857099758,130.1455027001154,130.98666769211326,0.0,0,0.0,,,,,,
85.99416739578993,1.497556922516921,152.30032857099758,130.1455027001154,132.26811775456002,0.0,0,0.0,,,,,,
86.99416739578993,1.5050808763716073,153.30032857099758,130.1455027001154,133.5495678170068,0.0,0,0.0,,,,,,
87.99416739578993,1.512532980236758,154.30032857099758,130.1455027001154,134.83101787945355,0.0,0,0.0,,,,,,
88.99416739578993,1.519914593394709,155.30032857099758,130.1455027001154,136.11246794190032,0.0,0,0.0,,,,,,
89.99416739578993,1.5272270369162033,156.30032857099758,130.1455027001154,137.39391800434709,0.0,0,0.0,,,,,,
90.99416739578993,1.5344715950793473,157.30032857099758,130.1455027001154,138.67536806679385,0.0,0,0.0,,,,,,
91.99416739578993,1.5416495167233057,158.30032857099758,130.1455027001154,139.95681812924062,0.0,0,0.0,,,,,,
92.99416739578993,1.5487620165403098,159.30032857099758,130.1455027001154,141.23826819168738,0.0,0,0.0,,,,,,
93.99416739578993,1.555810276309315,160.30032857099758,130.1455027001154,142.51971825413415,0.0,0,0.0,,,,,,
94.99416739578993,1.5627954460744484,161.30032857099758,130.1455027001154,143.8011683165809,0.0,0,0.0,,,,,,
95.99416739578993,1.5697186452711807,162.30032857099758,130.1455027001154,145.08261837902768,0.0,0,0.0,,,,,,
96.99416739578993,1.5765809638029804,163.30032857099758,130.1455027001154,146.36406844147444,0.0,0,0.0,,,,,,
97.99416739578993,1.5833834630710448,164.30032857099758,130.1455027001154,147.6455185039212,0.0,0,0.0,,,,,,
98.99416739578993,1.590127176959535,165.30032857099758,130.1455027001154,148.92696856636798,0.0,0,0.0,,,,,,
99.99416739578993,1.5968131127786063,166.30032857099758,130.1455027001154,150.20841862881474,0.0,0,0.0,,,,,,
100.99416739578993,1.603442252167383,167.30032857099758,130.1455027001154,151.4898686912615,0.0,0,0.0,,,,,,
101.99416739578993,1.6100155519589041,168.30032857099758,130.1455027001154,152.77131875370827,0.0,0,0.0,,,,,,
102.99416739578993,1.6165339450089433,169.30032857099758,130.1455027001154,154.05276881615504,0.0,0,0.0,,,,,,
103.7088079657992,1.621200670567082,170.0,130.0,152.21789617418366,0.0,0,0.0,,,,,,
104.7088079657992,1.6278260775953703,171.0,130.0,149.65035002724775,0.0,0,0.0,,,,,,
105.7088079657992,1.6345661400847242,172.0,130.0,147.08280388031184,0.0,0,0.0,,,,,,
106.7088079657992,1.6414248962401394,173.0,130.0,144.51525773337593,0.0,0,0.0,,,,,,
107.7088079657992,1.6484066014313858,174.0,130.0,141.94771158644002,0.0,0,0.0,,,,,,
108.7088079657992,1.655515744048687,175.0,130.0,139.3801654395041,0.0,0,0.0,,,,,,
109.7088079657992,1.662757062832377,176.0,130.0,136.8126192925682,0.0,0,0.0,,,,,,
110.7088079657992,1.670135565844078,177.0,130.0,134.2450731456323,0.0,0,0.0,,,,,,
111.7088079657992,1.677656551269591,178.0,130.0,131.67752699869638,0.0,0,0.0,,,,,,
112.7088079657992,1.6853256302699042,179.0,130.0,129.10998085176047,0.0,0,0.0,,,,,,
113.7088079657992,1.6931487521271562,180.0,130.0,126.54243470482456,0.0,0,0.0,,,,,,
114.7088079657992,1.7011322319678004,181.0,130.0,123.97488855788865,0.0,0,0.0,,,,,,
115.7088079657992,1.709282781386572,182.0,130.0,121.40734241095274,0.0,0,0.0,,,,,,
116.7088079657992,1.7176075423432708,183.0,130.0,118.83979626401683,0.0,0,0.0,,,,,,
117.7088079657992,1.7261141247612477,184.0,130.0,116.27225011708092,0.0,0,0.0,,,,,,
118.7088079657992,1.7348106483235235,185.0,130.0,113.704703970145,0.0,0,0.0,,,,,,
119.7088079657992,1.7437057890417504,186.0,130.0,111.1371578232091,0.0,0,0.0,,,,,,
120.7088079657992,1.7528088312673324,187.0,130.0,108.56961167627318,0.0,0,0.0,,,,,,
121.7088079657992,1.7621297259261532,188.0,130.0,106.00206552933727,0.0,0,0.0,,,,,,
122.7088079657992,1.7716791558924738,189.0,130.0,103.43451938240136,0.0,0,0.0,,,,,,
123.7088079657992,1.7814686095786536,190.0,130.0,100.86697323546545,0.0,0,0.0,,,,,,
124.7088079657992,1.7915104640116628,191.0,130.0,98.29942708852954,0.0,0,0.0,,,,,,
125.7088079657992,1.8018180789028098,192.0,130.0,95.73188094159363,0.0,0,0.0,,,,,,
126.7088079657992,1.812405903503767,193.0,130.0,93.16433479465772,0.0,0,0.0,,,,,,
127.7088079657992,1.8232895983927304,194.0,130.0,90.59678864772181,0.0,0,0.0,,,,,,
128.7088079657992,1.8344861747659535,195.0,130.0,88.0292425007859,0.0,0,0.0,,,,,,
129.7088079657992,1.8460141543434676,196.0,130.0,85.46169635384999,0.0,0,0.0,,,,,,
130.7088079657992,1.8578937536615592,197.0,130.0,82.89415020691408,0.0,0,0.0,,,,,,
131.7088079657992,1.870147097355399,198.0,130.0,80.32660405997817,0.0,0,0.0,,,,,,
132.7088079657992,1.8827984660819401,199.0,130.0,77.75905791304226,0.0,0,0.0,,,,,,
133.7088079657992,1.8958745860610646,200.0,130.0,75.19151176610634,0.0,0,0.0,,,,,,
134.7088079657992,1.9094049689098582,201.0,130.0,72.62396561917043,0.0,0,0.0,,,,,,
135.7088079657992,1.9234223126303616,202.0,130.0,70.05641947223452,0.0,0,0.0,,,,,,
136.7088079657992,1.9379629774493605,203.0,130.0,67.48887332529861,0.0,0,0.0,,,,,,
137.7088079657992,1.9530675539275504,204.0,130.0,64.9213271783627,0.0,0,0.0,,,,,,
138.7088079657992,1.9687815456744941,205.0,130.0,62.353781031426784,0.0,0,0.0,,,,,,
139.7088079657992,1.9851561955793773,206.0,130.0,59.78623488449087,0.0,0,0.0,,,,,,
140.7088079657992,2.00224949334914,207.0,130.0,57.21868873755495,0.0,0,0.0,,,,,,
141.7088079657992,2.0201274142886376,208.0,130.0,54.65114259061903,0.0,0,0.0,,,,,,
142.7088079657992,2.0388654560742387,209.0,130.0,52.08359644368311,0.0,0,0.0,,,,,,
143.7088079657992,2.058550563888734,210.0,130.0,49.516050296747196,0.0,0,0.0,,,,,,
144.7088079657992,2.0792835679592394,211.0,130.0,46.94850414981128,0.0,0,0.0,,,,,,
145.7088079657992,2.101182306360396,212.0,130.0,44.38095800287536,0.0,0,0.0,,,,,,
146.7088079657992,2.1243856780339283,213.0,130.0,41.81341185593944,0.0,0,0.0,,,,,,
147.7088079657992,2.1490589795989177,214.0,130.0,39.245865709003525,0.0,0,-0.0,,,,,,
148.7088079657992,2.1754010469238345,215.0,130.0,36.67831956206761,0.0,0,-0.0,,,,,,
149.7088079657992,2.2036539869727227,216.0,130.0,34.11077341513169,0.0,0,-0.0,,,,,,
150.7088079657992,2.234116715506917,217.0,130.0,31.54322726819577,0.0,0,-0.0,,,,,,
151.7088079657992,2.26716423822708,218.0,130.0,28.975681121259854,0.0,0,-0.0,,,,,,
152.7088079657992,2.3032758704870946,219.0,130.0,26.408134974323936,0.0,0,-0.0,,,,,,
153.7088079657992,2.3430778763627513,220.0,130.0,23.840588827388018,0.0,0,-0.0,,,,,,
154.7088079657992,2.387410374837241,221.0,130.0,21.2730426804521,0.0,0,-0.0,,,,,,
155.7088079657992,2.4374372152201733,222.0,130.0,18.705496533516182,0.0,0,-0.0,,,,,,
156.7088079657992,2.4948368176356985,223.0,130.0,16.137950386580265,0.0,0,-0.0,,,,,,
157.7088079657992,2.562157947505157,224.0,130.0,13.570404239644347,0.0,0,0.0,,,,,,
158.7088079657992,2.6403733711353867,225.0,130.0,12.0,0.0,0,0.0,,,,,,
159.7088079657992,2.72370670446872,226.0,130.0,12.0,0.0,0,0.0,,,,,,
160.7088079657992,2.8070400378020537,227.0,130.0,12.0,0.0,0,0.0,,,,,,
161.7088079657992,2.890373371135387,228.0,130.0,12.0,0.0,0,0.0,,,,,,
162.7088079657992,2.9737067044687207,229.0,130.0,12.0,0.0,0,0.0,,,,,,
163.7088079657992,3.140373371135387,230.0,130.0,0.0,0.0,0,0.0,,,,,,
