Distance (in),Time (s),X (in),Y (in),Velocity (in/s),Orientation (deg),Touch,Rotational Velocity (deg/s),Way X (in),Way Y (in),Way Velocity (in/s),Way Orientation (deg),Way Turn Radius (in),Touch this Point
0.0,0.0,74.0,140.60000000000002,12.0,0.0,0,0.0,74.0,140.60000000000002,12.0,0.0,3.0,0.0
0.9999999999999942,0.07754309863700566,74.98139265486002,140.40798839361437,13.792108326266115,0.0,0,0.0,120.0,131.60000000000002,96.0,0.0,20.0,0.0
1.9999999999999885,0.14562513413475564,75.96278530972003,140.21597678722873,15.58421665253223,0.0,0,0.0,200.0,129.60000000000002,96.0,0.0,3.0,0.0
2.9999999999999827,0.2063037486542116,76.94417796458005,140.02396518084308,17.376324978798348,0.0,0,0.0,282.0,129.60000000000002,12.0,0.0,3.0,0.0
3.999999999999977,0.26103115947643984,77.92557061944007,139.83195357445743,19.168433305064465,0.0,0,0.0,,,,,,
4.999999999999972,0.31087045896440374,78.90696327430008,139.63994196807178,20.96054163133058,0.0,0,0.0,,,,,,
5.999999999999966,0.3566232380981652,79.8883559291601,139.44793036168613,22.7526499575967,0.0,0,0.0,,,,,,
6.999999999999961,0.39890885319550257,80.86974858402012,139.25591875530048,24.544758283862816,0.0,0,0.0,,,,,,
7.999999999999956,0.4382157739977931,81.85114123888013,139.06390714891484,26.336866610128933,0.0,0,-0.0,,,,,,
8.99999999999995,0.4749360365185074,82.83253389374015,138.8718955425292,28.12897493639505,0.0,0,-0.0,,,,,,
9.999999999999945,0.50938905968589,83.81392654860016,138.67988393614354,29.921083262661167,0.0,0,-0.0,,,,,,
10.99999999999994,0.541838536942106,84.79531920346018,138.4878723297579,31.713191588927284,0.0,0,-0.0,,,,,,
11.999999999999934,0.5725046862791177,85.7767118583202,138.29586072337224,33.5052999151934,0.0,0,-0.0,,,,,,
12.999999999999929,0.6015733095002604,86.75810451318021,138.1038491169866,35.297408241459514,0.0,0,-0.0,,,,,,
13.999999999999924,0.6292026086488577,87.73949716804023,137.91183751060095,37.08951656772563,0.0,0,-0.0,,,,,,
14.999999999999918,0.6555283944869947,88.72088982290025,137.7198259042153,38.88162489399175,0.0,0,-0.0,,,,,,
15.999999999999913,0.6806681216833426,89.70228247776026,137.52781429782965,40.673733220257866,0.0,0,-0.0,,,,,,
16.999999999999908,0.7047240541993588,90.68367513262028,137.335802691444,42.46584154652398,0.0,0,-0.0,,,,,,
17.9999999999999,0.7277857765626015,91.6650677874803,137.14379108505835,44.25794987279009,0.0,0,-0.0,,,,,,
18.999999999999893,0.7499322067928956,92.64646044234031,136.9517794786727,46.05005819905621,0.0,0,-0.0,,,,,,
19.999999999999886,0.7712332251239769,93.62785309720033,136.75976787228706,47.84216652532233,0.0,0,0.0,,,,,,
20.99999999999988,0.7917510032840003,94.60924575206035,136.5677562659014,49.634274851588444,0.0,0,0.0,,,,,,
21.999999999999872,0.8115410980547795,95.59063840692036,136.37574465951576,51.42638317785456,0.0,0,0.0,,,,,,
22.999999999999865,0.8306533575522289,96.57203106178038,136.1837330531301,53.21849150412068,0.0,0,0.0,,,,,,
23.999999999999858,0.8491326774406175,97.5534237166404,135.99172144674446,55.010599830386795,0.0,0,0.0,,,,,,
24.99999999999985,0.867019635943194,98.53481637150041,135.79970984035882,56.80270815665291,0.0,0,0.0,,,,,,
25.999999999999844,0.8843510302365006,99.51620902636043,135.60769823397317,58.59481648291903,0.0,0,0.0,,,,,,
26.999999999999837,0.901160332052734,100.49760168122044,135.41568662758752,60.386924809185146,0.0,0,0.0,,,,,,
27.99999999999983,0.9174780766658296,101.47899433608046,135.22367502120187,62.17903313545126,0.0,0,0.0,,,,,,
28.999999999999822,0.9333321966175976,102.46038699094048,135.03166341481622,63.97114146171738,0.0,0,0.0,,,,,,
29.999999999999815,0.9487483093440262,103.4417796458005,134.83965180843057,65.7632497879835,0.0,0,0.0,,,,,,
30.999999999999808,0.9637499661380025,104.42317230066051,134.64764020204493,67.55535811424961,0.0,0,0.0,,,,,,
31.9999999999998,0.9783588685218968,105.40456495552053,134.45562859565928,69.34746644051573,0.0,0,0.0,,,,,,
32.999999999999794,0.9925950570188049,106.38595761038054,134.26361698927363,71.13957476678185,0.0,0,0.0,,,,,,
33.99999999999979,1.006477076442456,107.36735026524056,134.07160538288798,72.93168309304797,0.0,0,0.0,,,,,,
34.99999999999978,1.02002212112573,108.34874292010058,133.87959377650233,74.72379141931408,0.0,0,0.0,,,,,,
35.99999999999977,1.0332461629403846,109.3301355749606,133.68758217011668,76.5158997455802,0.0,0,0.0,,,,,,
36.999999999999766,1.0461640644983174,110.31152822982061,133.49557056373104,78.30800807184632,0.0,0,0.0,,,,,,
37.99999999999976,1.0587896795461067,111.29292088468063,133.3035589573454,80.10011639811243,0.0,0,0.0,,,,,,
38.99999999999975,1.0711359422529818,112.27431353954064,133.11154735095974,81.89222472437855,0.0,0,0.0,,,,,,
39.999999999999744,1.0832149468347625,113.25570619440066,132.9195357445741,83.68433305064467,0.0,0,0.0,,,,,,
40.99999999999974,1.095038018742349,114.23709884926068,132.72752413818844,85.47644137691078,0.0,0,0.0,,,,,,
41.99999999999973,1.1066157784649029,115.21849150412069,132.5355125318028,87.2685497031769,0.0,0,0.0,,,,,,
42.99999999999972,1.1179581988484433,116.19988415898071,132.34350092541715,89.06065802944302,0.0,0,0.0,,,,,,
43.999999999999716,1.1290746567049645,117.18127681384073,132.1514893190315,90.85276635570914,0.0,0,0.0,,,,,,
44.99999999999971,1.1399739793812123,118.16266946870074,131.95947771264585,92.64487468197525,0.0,0,0.0,,,,,,
45.9999999999997,1.1506644868665064,119.14406212356076,131.7674661062602,94.43698300824137,0.0,0,0.0,,,,,,
46.87216658103183,1.1598419616019249,120.0,131.60000000000002,95.62980686069423,0.0,0,0.0,,,,,,
47.87216658103183,1.1702787513308521,120.99968764640812,131.5750078088398,96.0,0.0,0,0.0,,,,,,
48.87216658103183,1.1806954179975189,121.99937529281624,131.5500156176796,96.0,0.0,0,0.0,,,,,,
49.87216658103183,1.1911120846641856,122.99906293922436,131.5250234265194,96.0,0.0,0,0.0,,,,,,
50.87216658103183,1.2015287513308524,123.99875058563248,131.5000312353592,96.0,0.0,0,0.0,,,,,,
51.87216658103183,1.211945417997519,124.9984382320406,131.47503904419898,96.0,0.0,0,0.0,,,,,,
52.87216658103183,1.2223620846641858,125.99812587844872,131.45004685303877,96.0,0.0,0,0.0,,,,,,
53.87216658103183,1.2327787513308526,126.99781352485684,131.42505466187856,96.0,0.0,0,0.0,,,,,,
54.87216658103183,1.2431954179975193,127.99750117126496,131.40006247071835,96.0,0.0,0,0.0,,,,,,
55.87216658103183,1.253612084664186,128.99718881767308,131.37507027955814,96.0,0.0,0,0.0,,,,,,
56.87216658103183,1.2640287513308528,129.9968764640812,131.35007808839794,96.0,0.0,0,0.0,,,,,,
57.87216658103183,1.2744454179975195,130.99656411048932,131.32508589723773,96.0,0.0,0,0.0,,,,,,
58.87216658103183,1.2848620846641863,131.99625175689744,131.30009370607752,96.0,0.0,0,0.0,,,,,,
59.87216658103183,1.295278751330853,132.99593940330556,131.2751015149173,96.0,0.0,0,0.0,,,,,,
60.87216658103183,1.3056954179975198,133.99562704971368,131.2501093237571,96.0,0.0,0,0.0,,,,,,
61.87216658103183,1.3161120846641865,134.9953146961218,131.2251171325969,96.0,0.0,0,0.0,,,,,,
62.87216658103183,1.3265287513308532,135.99500234252992,131.20012494143668,96.0,0.0,0,0.0,,,,,,
63.87216658103183,1.33694541799752,136.99468998893803,131.17513275027648,96.0,0.0,0,0.0,,,,,,
64.87216658103182,1.3473620846641865,137.99437763534615,131.15014055911627,96.0,0.0,0,0.0,,,,,,
65.87216658103182,1.3577787513308532,138.99406528175427,131.12514836795606,96.0,0.0,0,0.0,,,,,,
66.87216658103182,1.36819541799752,139.9937529281624,131.10015617679585,96.0,0.0,0,0.0,,,,,,
67.87216658103182,1.3786120846641867,140.9934405745705,131.07516398563564,96.0,0.0,0,0.0,,,,,,
68.87216658103182,1.3890287513308535,141.99312822097863,131.05017179447543,96.0,0.0,0,0.0,,,,,,
69.87216658103182,1.3994454179975202,142.99281586738675,131.02517960331522,96.0,0.0,0,0.0,,,,,,
70.87216658103182,1.409862084664187,143.99250351379487,131.00018741215501,96.0,0.0,0,0.0,,,,,,
71.87216658103182,1.4202787513308537,144.992191160203,130.9751952209948,96.0,0.0,0,0.0,,,,,,
72.87216658103182,1.4306954179975204,145.9918788066111,130.9502030298346,96.0,0.0,0,0.0,,,,,,
73.87216658103182,1.4411120846641872,146.99156645301923,130.9252108386744,96.0,0.0,0,0.0,,,,,,
74.87216658103182,1.451528751330854,147.99125409942735,130.90021864751418,96.0,0.0,0,-0.0,,,,,,
75.87216658103182,1.4619454179975206,148.99094174583547,130.87522645635397,96.0,0.0,0,-0.0,,,,,,
76.87216658103182,1.4723620846641874,149.9906293922436,130.85023426519376,96.0,0.0,0,-0.0,,,,,,
77.87216658103182,1.4827787513308541,150.9903170386517,130.82524207403355,96.0,0.0,0,-0.0,,,,,,
78.87216658103182,1.4931954179975209,151.99000468505983,130.80024988287335,96.0,0.0,0,-0.0,,,,,,
79.87216658103182,1.5036120846641876,152.98969233146795,130.77525769171314,96.0,0.0,0,-0.0,,,,,,
80.87216658103182,1.5140287513308543,153.98937997787607,130.75026550055293,96.0,0.0,0,-0.0,,,,,,
81.87216658103182,1.524445417997521,154.9890676242842,130.72527330939272,96.0,0.0,0,-0.0,,,,,,
82.87216658103182,1.5348620846641878,155.9887552706923,130.7002811182325,96.0,0.0,0,-0.0,,,,,,
83.87216658103182,1.5452787513308546,156.98844291710043,130.6752889270723,96.0,0.0,0,-0.0,,,,,,
84.87216658103182,1.5556954179975213,157.98813056350855,130.6502967359121,96.0,0.0,0,-0.0,,,,,,
85.87216658103182,1.566112084664188,158.98781820991667,130.62530454475188,96.0,0.0,0,-0.0,,,,,,
86.87216658103182,1.5765287513308548,159.9875058563248,130.60031235359168,96.0,0.0,0,-0.0,,,,,,
87.87216658103182,1.5869454179975215,160.9871935027329,130.57532016243147,96.0,0.0,0,-0.0,,,,,,
88.87216658103182,1.5973620846641883,161.98688114914103,130.55032797127126,96.0,0.0,0,-0.0,,,,,,
89.87216658103182,1.607778751330855,162.98656879554915,130.52533578011105,96.0,0.0,0,-0.0,,,,,,
90.87216658103182,1.6181954179975218,163.98625644195727,130.50034358895084,96.0,0.0,0,-0.0,,,,,,
91.87216658103182,1.6286120846641885,164.9859440883654,130.47535139779063,96.0,0.0,0,-0.0,,,,,,
92.87216658103182,1.6390287513308552,165.9856317347735,130.45035920663042,96.0,0.0,0,-0.0,,,,,,
93.87216658103182,1.649445417997522,166.98531938118163,130.42536701547021,96.0,0.0,0,-0.0,,,,,,
94.87216658103182,1.6598620846641887,167.98500702758975,130.40037482431,96.0,0.0,0,-0.0,,,,,,
95.87216658103182,1.6702787513308555,168.98469467399786,130.3753826331498,96.0,0.0,0,-0.0,,,,,,
96.87216658103182,1.6806954179975222,169.98438232040598,130.3503904419896,96.0,0.0,0,-0.0,,,,,,
97.87216658103182,1.691112084664189,170.9840699668141,130.32539825082938,96.0,0.0,0,-0.0,,,,,,
98.87216658103182,1.7015287513308557,171.98375761322222,130.30040605966917,96.0,0.0,0,0.0,,,,,,
99.87216658103182,1.7119454179975224,172.98344525963034,130.27541386850896,96.0,0.0,0,0.0,,,,,,
100.87216658103182,1.7223620846641892,173.98313290603846,130.25042167734875,96.0,0.0,0,0.0,,,,,,
101.87216658103182,1.732778751330856,174.98282055244658,130.22542948618855,96.0,0.0,0,0.0,,,,,,
102.87216658103182,1.7431954179975226,175.9825081988547,130.20043729502834,96.0,0.0,0,0.0,,,,,,
103.87216658103182,1.7536120846641894,176.98219584526282,130.17544510386813,96.0,0.0,0,0.0,,,,,,
104.87216658103182,1.7640287513308561,177.98188349167094,130.15045291270792,96.0,0.0,0,0.0,,,,,,
105.87216658103182,1.7744454179975229,178.98157113807906,130.1254607215477,96.0,0.0,0,0.0,,,,,,
106.87216658103182,1.7848620846641896,179.98125878448718,130.1004685303875,96.0,0.0,0,0.0,,,,,,
107.87216658103182,1.7952787513308563,180.9809464308953,130.0754763392273,96.0,0.0,0,0.0,,,,,,
108.87216658103182,1.805695417997523,181.98063407730342,130.05048414806708,96.0,0.0,0,0.0,,,,,,
109.87216658103182,1.8161120846641898,182.98032172371154,130.02549195690688,96.0,0.0,0,0.0,,,,,,
110.87216658103182,1.8265287513308566,183.98000937011966,130.00049976574667,96.0,0.0,0,0.0,,,,,,
111.87216658103182,1.8369454179975233,184.97969701652778,129.97550757458646,96.0,0.0,0,0.0,,,,,,
112.87216658103182,1.84736208466419,185.9793846629359,129.95051538342625,96.0,0.0,0,0.0,,,,,,
113.87216658103182,1.8577787513308568,186.97907230934402,129.92552319226604,96.0,0.0,0,0.0,,,,,,
114.87216658103182,1.8681954179975235,187.97875995575214,129.90053100110583,96.0,0.0,0,0.0,,,,,,
115.87216658103182,1.8786120846641903,188.97844760216026,129.87553880994562,96.0,0.0,0,0.0,,,,,,
116.87216658103182,1.889028751330857,189.97813524856838,129.85054661878542,96.0,0.0,0,0.0,,,,,,
117.87216658103182,1.8994454179975238,190.9778228949765,129.8255544276252,96.0,0.0,0,0.0,,,,,,
118.87216658103182,1.9098620846641905,191.97751054138462,129.800562236465,96.0,0.0,0,0.0,,,,,,
119.87216658103182,1.9202787513308572,192.97719818779274,129.7755700453048,96.0,0.0,0,0.0,,,,,,
120.87216658103182,1.930695417997524,193.97688583420086,129.75057785414458,96.0,0.0,0,0.0,,,,,,
121.87216658103182,1.9411120846641907,194.97657348060898,129.72558566298437,96.0,0.0,0,0.0,,,,,,
122.87216658103182,1.9515287513308575,195.9762611270171,129.70059347182416,96.0,0.0,0,0.0,,,,,,
123.87216658103182,1.9619454179975242,196.97594877342522,129.67560128066395,96.0,0.0,0,0.0,,,,,,
124.87216658103182,1.972362084664191,197.97563641983334,129.65060908950375,96.0,0.0,0,0.0,,,,,,
125.87216658103182,1.9827787513308577,198.97532406624146,129.62561689834354,96.0,0.0,0,0.0,,,,,,
126.87216658103182,1.9931954179975244,199.97501171264958,129.60062470718333,96.0,0.0,0,0.0,,,,,,
126.89716267600228,1.9934558287160358,200.0,129.60000000000002,95.9743942441766,0.0,0,0.0,,,,,,
127.89716267600228,2.003931179265206,201.0,129.60000000000002,94.95000400027415,0.0,0,0.0,,,,,,
128.89716267600227,2.0145201585297334,202.0,129.60000000000002,93.92561375637172,0.0,0,0.0,,,,,,
129.89716267600227,2.025225258660086,203.0,129.60000000000002,92.90122351246927,0.0,0,0.0,,,,,,
130.89716267600227,2.036049054704061,204.0,129.60000000000002,91.87683326856683,0.0,0,0.0,,,,,,
131.89716267600227,2.0469942083246035,205.0,129.60000000000002,90.85244302466438,0.0,0,0.0,,,,,,
132.89716267600227,2.0580634717284068,206.0,129.60000000000002,89.82805278076194,0.0,0,0.0,,,,,,
133.89716267600227,2.0692596918198047,207.0,129.60000000000002,88.80366253685949,0.0,0,0.0,,,,,,
134.89716267600227,2.080585814595641,208.0,129.60000000000002,87.77927229295705,0.0,0,0.0,,,,,,
135.89716267600227,2.0920448897980846,209.0,129.60000000000002,86.7548820490546,0.0,0,0.0,,,,,,
136.89716267600227,2.103640075843775,210.0,129.60000000000002,85.73049180515216,0.0,0,0.0,,,,,,
137.89716267600227,2.11537464504923,211.0,129.60000000000002,84.70610156124971,0.0,0,0.0,,,,,,
138.89716267600227,2.1272519891741397,212.0,129.60000000000002,83.68171131734726,0.0,0,0.0,,,,,,
139.89716267600227,2.1392756253060443,213.0,129.60000000000002,82.65732107344482,0.0,0,0.0,,,,,,
140.89716267600227,2.1514492021119342,214.0,129.60000000000002,81.63293082954237,0.0,0,0.0,,,,,,
141.89716267600227,2.1637765064845746,215.0,129.60000000000002,80.60854058563993,0.0,0,0.0,,,,,,
142.89716267600227,2.1762614706138477,216.0,129.60000000000002,79.58415034173748,0.0,0,0.0,,,,,,
143.89716267600227,2.1889081795161434,217.0,129.60000000000002,78.55976009783504,0.0,0,0.0,,,,,,
144.89716267600227,2.201720879057878,218.0,129.60000000000002,77.5353698539326,0.0,0,0.0,,,,,,
145.89716267600227,2.2147039845125636,219.0,129.60000000000002,76.51097961003015,0.0,0,0.0,,,,,,
146.89716267600227,2.227862089694586,220.0,129.60000000000002,75.4865893661277,0.0,0,0.0,,,,,,
147.89716267600227,2.2411999767169632,221.0,129.60000000000002,74.46219912222526,0.0,0,0.0,,,,,,
148.89716267600227,2.254722626424951,222.0,129.60000000000002,73.43780887832281,0.0,0,0.0,,,,,,
149.89716267600227,2.2684352295624546,223.0,129.60000000000002,72.41341863442037,0.0,0,0.0,,,,,,
150.89716267600227,2.282343198733891,224.0,129.60000000000002,71.38902839051792,0.0,0,0.0,,,,,,
151.89716267600227,2.296452181230482,225.0,129.60000000000002,70.36463814661548,0.0,0,0.0,,,,,,
152.89716267600227,2.3107680727970363,226.0,129.60000000000002,69.34024790271303,0.0,0,0.0,,,,,,
153.89716267600227,2.3252970324232125,227.0,129.60000000000002,68.31585765881059,0.0,0,0.0,,,,,,
154.89716267600227,2.3400454982521253,228.0,129.60000000000002,67.29146741490814,0.0,0,0.0,,,,,,
155.89716267600227,2.3550202047091386,229.0,129.60000000000002,66.2670771710057,0.0,0,0.0,,,,,,
156.89716267600227,2.3702282009648994,230.0,129.60000000000002,65.24268692710325,0.0,0,0.0,,,,,,
157.89716267600227,2.3856768708593,231.0,129.60000000000002,64.2182966832008,0.0,0,0.0,,,,,,
158.89716267600227,2.4013739544273247,232.0,129.60000000000002,63.19390643929837,0.0,0,0.0,,,,,,
159.89716267600227,2.4173275711838484,233.0,129.60000000000002,62.16951619539593,0.0,0,0.0,,,,,,
160.89716267600227,2.4335462453427343,234.0,129.60000000000002,61.14512595149349,0.0,0,0.0,,,,,,
161.89716267600227,2.4500389331663084,235.0,129.60000000000002,60.12073570759105,0.0,0,0.0,,,,,,
162.89716267600227,2.4668150526648773,236.0,129.60000000000002,59.096345463688614,0.0,0,0.0,,,,,,
163.89716267600227,2.4838845158928446,237.0,129.60000000000002,58.071955219786176,0.0,0,0.0,,,,,,
164.89716267600227,2.5012577641186935,238.0,129.60000000000002,57.04756497588374,0.0,0,0.0,,,,,,
165.89716267600227,2.5189458061812755,239.0,129.60000000000002,56.0231747319813,0.0,0,0.0,,,,,,
166.89716267600227,2.5369602603852024,240.0,129.60000000000002,54.99878448807886,0.0,0,0.0,,,,,,
167.89716267600227,2.555313400334565,241.0,129.60000000000002,53.97439424417642,0.0,0,0.0,,,,,,
168.89716267600227,2.57401820515776,242.0,129.60000000000002,52.950004000273985,0.0,0,0.0,,,,,,
169.89716267600227,2.5930884146381064,243.0,129.60000000000002,51.92561375637155,0.0,0,0.0,,,,,,
170.89716267600227,2.6125385898367366,244.0,129.60000000000002,50.90122351246911,0.0,0,0.0,,,,,,
171.89716267600227,2.6323841798776866,245.0,129.60000000000002,49.87683326856667,0.0,0,0.0,,,,,,
172.89716267600227,2.652641595662442,246.0,129.60000000000002,48.85244302466423,0.0,0,0.0,,,,,,
173.89716267600227,2.6733282913950034,247.0,129.60000000000002,47.828052780761794,0.0,0,0.0,,,,,,
174.89716267600227,2.69446285493205,248.0,129.60000000000002,46.803662536859356,0.0,0,-0.0,,,,,,
175.89716267600227,2.716065108129968,249.0,129.60000000000002,45.77927229295692,0.0,0,-0.0,,,,,,
176.89716267600227,2.7381562185460946,250.0,129.60000000000002,44.75488204905448,0.0,0,-0.0,,,,,,
177.89716267600227,2.7607588240715604,251.0,129.60000000000002,43.73049180515204,0.0,0,-0.0,,,,,,
178.89716267600227,2.783897172334802,252.0,129.60000000000002,42.7061015612496,0.0,0,-0.0,,,,,,
179.89716267600227,2.807597277027375,253.0,129.60000000000002,41.681711317347165,0.0,0,-0.0,,,,,,
180.89716267600227,2.8318870936784593,254.0,129.60000000000002,40.65732107344473,0.0,0,-0.0,,,,,,
181.89716267600227,2.8567967178557074,255.0,129.60000000000002,39.63293082954229,0.0,0,-0.0,,,,,,
182.89716267600227,2.882358609315892,256.0,129.60000000000002,38.60854058563985,0.0,0,-0.0,,,,,,
183.89716267600227,2.908607846291999,257.0,129.60000000000002,37.58415034173741,0.0,0,-0.0,,,,,,
184.89716267600227,2.9355824149132483,258.0,129.60000000000002,36.559760097834975,0.0,0,-0.0,,,,,,
185.89716267600227,2.9633235397484214,259.0,129.60000000000002,35.535369853932536,0.0,0,-0.0,,,,,,
186.89716267600227,2.9918760626893772,260.0,129.60000000000002,34.5109796100301,0.0,0,-0.0,,,,,,
187.89716267600227,3.021288878913752,261.0,129.60000000000002,33.48658936612766,0.0,0,-0.0,,,,,,
188.89716267600227,3.0516154405662563,262.0,129.60000000000002,32.46219912222522,0.0,0,-0.0,,,,,,
189.89716267600227,3.0829143411858437,263.0,129.60000000000002,31.437808878322784,0.0,0,-0.0,,,,,,
190.89716267600227,3.1152499969266767,264.0,129.60000000000002,30.413418634420346,0.0,0,-0.0,,,,,,
191.89716267600227,3.148693444469316,265.0,129.60000000000002,29.389028390517907,0.0,0,-0.0,,,,,,
192.89716267600227,3.1833232804592804,266.0,129.60000000000002,28.36463814661547,0.0,0,-0.0,,,,,,
193.89716267600227,3.2192267737045395,267.0,129.60000000000002,27.34024790271303,0.0,0,-0.0,,,,,,
194.89716267600227,3.2565011897112464,268.0,129.60000000000002,26.315857658810593,0.0,0,-0.0,,,,,,
195.89716267600227,3.2952553781359146,269.0,129.60000000000002,25.291467414908155,0.0,0,0.0,,,,,,
