Distance (in),Time (s),X (in),Y (in),Velocity (in/s),Orientation (deg),Touch,Rotational Velocity (deg/s),Way X (in),Way Y (in),Way Velocity (in/s),Way Orientation (deg),Way Turn Radius (in),Touch this Point
0.0,0.0,74.0,297.6,12.0,0.0,0,0.0,74.0,297.6,12.0,0.0,3.0,0.0
0.999999999999997,0.07623825395708288,74.96351790962994,297.33235613621395,14.233549382254509,0.0,0,0.0,110.0,287.6,192.0,0.0,3.0,0.0
1.999999999999994,0.14138345839833943,75.92703581925988,297.06471227242787,16.467098764509018,0.0,0,0.0,200.0,287.6,96.0,0.0,3.0,0.0
2.999999999999991,0.19825374937961698,76.89055372888983,296.7970684086418,18.700648146763527,0.0,0,0.0,260.0,282.0,0.0,0.0,3.0,0
3.999999999999988,0.2487143974759983,77.85407163851977,296.5294245448557,20.934197529018036,0.0,0,0.0,,,,,,
4.999999999999985,0.2940638718672643,78.81758954814971,296.26178068106964,23.167746911272545,0.0,0,0.0,,,,,,
5.999999999999982,0.3352423647514386,79.78110745777965,295.99413681728356,25.401296293527054,0.0,0,0.0,,,,,,
6.99999999999998,0.37295249836480304,80.7446253674096,295.7264929534975,27.634845675781563,0.0,0,-0.0,,,,,,
7.999999999999977,0.40773314680265355,81.70814327703954,295.4588490897114,29.86839505803607,0.0,0,-0.0,,,,,,
8.999999999999973,0.44000665080780743,82.67166118666948,295.19120522592533,32.10194444029058,0.0,0,-0.0,,,,,,
9.99999999999997,0.47011015949650364,83.63517909629942,294.92356136213925,34.33549382254509,0.0,0,-0.0,,,,,,
10.999999999999966,0.49831709919104933,84.59869700592937,294.6559174983532,36.5690432047996,0.0,0,-0.0,,,,,,
11.999999999999963,0.5248522802175457,85.56221491555931,294.3882736345671,38.80259258705411,0.0,0,-0.0,,,,,,
12.99999999999996,0.5499027774619387,86.52573282518925,294.120629770781,41.036141969308616,0.0,0,-0.0,,,,,,
13.999999999999956,0.5736259282952613,87.4892507348192,293.85298590699495,43.269691351563125,0.0,0,-0.0,,,,,,
14.999999999999952,0.5961553182006935,88.45276864444914,293.58534204320887,45.503240733817634,0.0,0,-0.0,,,,,,
15.999999999999948,0.6176053325536472,89.41628655407908,293.3176981794228,47.73679011607214,0.0,0,0.0,,,,,,
16.999999999999947,0.6380746678815091,90.37980446370902,293.0500543156367,49.97033949832665,0.0,0,0.0,,,,,,
17.999999999999943,0.6576490755548717,91.34332237333896,292.78241045185064,52.20388888058116,0.0,0,0.0,,,,,,
18.99999999999994,0.6764035308263284,92.3068402829689,292.51476658806456,54.43743826283567,0.0,0,0.0,,,,,,
19.999999999999936,0.6944039658397573,93.27035819259885,292.2471227242785,56.67098764509018,0.0,0,0.0,,,,,,
20.999999999999932,0.7117086677277081,94.23387610222879,291.9794788604924,58.90453702734469,0.0,0,0.0,,,,,,
21.99999999999993,0.7283694165745588,95.19739401185873,291.71183499670633,61.1380864095992,0.0,0,0.0,,,,,,
22.999999999999925,0.7444324192432504,96.16091192148868,291.44419113292025,63.371635791853706,0.0,0,0.0,,,,,,
23.999999999999922,0.759939081487064,97.12442983111862,291.1765472691342,65.60518517410821,0.0,0,0.0,,,,,,
24.99999999999992,0.77492665082735,98.08794774074856,290.9089034053481,67.83873455636272,0.0,0,0.0,,,,,,
25.999999999999915,0.7894287553134596,99.0514656503785,290.641259541562,70.07228393861723,0.0,0,0.0,,,,,,
26.99999999999991,0.8034758577649895,100.01498356000845,290.37361567777594,72.30583332087174,0.0,0,0.0,,,,,,
27.999999999999908,0.8170956409227408,100.97850146963839,290.10597181398987,74.53938270312625,0.0,0,0.0,,,,,,
28.999999999999904,0.8303133357468233,101.94201937926833,289.8383279502038,76.77293208538076,0.0,0,0.0,,,,,,
29.9999999999999,0.8431520026437129,102.90553728889827,289.5706840864177,79.00648146763527,0.0,0,0.0,,,,,,
30.999999999999897,0.8556327734952933,103.86905519852822,289.30304022263164,81.24003084988978,0.0,0,0.0,,,,,,
31.999999999999893,0.8677750608682774,104.83257310815816,289.03539635884556,83.47358023214429,0.0,0,0.0,,,,,,
32.99999999999989,0.8795967396034837,105.7960910177881,288.7677524950595,85.7071296143988,0.0,0,0.0,,,,,,
33.99999999999989,0.8911143050481461,106.75960892741804,288.5001086312734,87.9406789966533,0.0,0,0.0,,,,,,
34.99999999999989,0.9023430114459938,107.72312683704799,288.23246476748733,90.17422837890781,0.0,0,0.0,,,,,,
35.99999999999989,0.9132969933978937,108.68664474667793,287.96482090370125,92.40777776116232,0.0,0,0.0,,,,,,
36.99999999999989,0.9239893728189034,109.65016265630787,287.6971770399152,94.64132714341683,0.0,0,0.0,,,,,,
37.36308338453881,0.9278192439648104,110.0,287.6,94.96473045303183,0.0,0,0.0,,,,,,
38.36308338453881,0.9383003160272694,111.0,287.6,95.85544405598475,0.0,0,0.0,,,,,,
39.36308338453881,0.9487248312649834,112.0,287.6,96.0,0.0,0,0.0,,,,,,
40.36308338453881,0.95914149793165,113.0,287.6,96.0,0.0,0,0.0,,,,,,
41.36308338453881,0.9695581645983167,114.0,287.6,96.0,0.0,0,0.0,,,,,,
42.36308338453881,0.9799748312649833,115.0,287.6,96.0,0.0,0,0.0,,,,,,
43.36308338453881,0.9903914979316499,116.0,287.6,96.0,0.0,0,0.0,,,,,,
44.36308338453881,1.0008081645983167,117.0,287.6,96.0,0.0,0,0.0,,,,,,
45.36308338453881,1.0112248312649834,118.0,287.6,96.0,0.0,0,0.0,,,,,,
46.36308338453881,1.0216414979316502,119.0,287.6,96.0,0.0,0,0.0,,,,,,
47.36308338453881,1.032058164598317,120.0,287.6,96.0,0.0,0,0.0,,,,,,
48.36308338453881,1.0424748312649836,121.0,287.6,96.0,0.0,0,0.0,,,,,,
49.36308338453881,1.0528914979316504,122.0,287.6,96.0,0.0,0,0.0,,,,,,
50.36308338453881,1.0633081645983171,123.0,287.6,96.0,0.0,0,0.0,,,,,,
51.36308338453881,1.0737248312649839,124.0,287.6,96.0,0.0,0,0.0,,,,,,
52.36308338453881,1.0841414979316506,125.0,287.6,96.0,0.0,0,0.0,,,,,,
53.36308338453881,1.0945581645983173,126.0,287.6,96.0,0.0,0,0.0,,,,,,
54.36308338453881,1.104974831264984,127.0,287.6,96.0,0.0,0,0.0,,,,,,
55.36308338453881,1.1153914979316508,128.0,287.6,96.0,0.0,0,0.0,,,,,,
56.36308338453881,1.1258081645983176,129.0,287.6,96.0,0.0,0,0.0,,,,,,
57.36308338453881,1.1362248312649843,130.0,287.6,96.0,0.0,0,0.0,,,,,,
58.36308338453881,1.146641497931651,131.0,287.6,96.0,0.0,0,0.0,,,,,,
59.36308338453881,1.1570581645983178,132.0,287.6,96.0,0.0,0,0.0,,,,,,
60.36308338453881,1.1674748312649845,133.0,287.6,96.0,0.0,0,0.0,,,,,,
61.36308338453881,1.1778914979316513,134.0,287.6,96.0,0.0,0,0.0,,,,,,
62.36308338453881,1.188308164598318,135.0,287.6,96.0,0.0,0,0.0,,,,,,
63.36308338453881,1.1987248312649847,136.0,287.6,96.0,0.0,0,0.0,,,,,,
64.36308338453881,1.2091414979316515,137.0,287.6,96.0,0.0,0,0.0,,,,,,
65.36308338453881,1.2195581645983182,138.0,287.6,96.0,0.0,0,0.0,,,,,,
66.36308338453881,1.229974831264985,139.0,287.6,96.0,0.0,0,0.0,,,,,,
67.36308338453881,1.2403914979316517,140.0,287.6,96.0,0.0,0,0.0,,,,,,
68.36308338453881,1.2508081645983185,141.0,287.6,96.0,0.0,0,-0.0,,,,,,
69.36308338453881,1.2612248312649852,142.0,287.6,96.0,0.0,0,-0.0,,,,,,
70.36308338453881,1.271641497931652,143.0,287.6,96.0,0.0,0,-0.0,,,,,,
71.36308338453881,1.2820581645983187,144.0,287.6,96.0,0.0,0,-0.0,,,,,,
72.36308338453881,1.2924748312649854,145.0,287.6,96.0,0.0,0,-0.0,,,,,,
73.36308338453881,1.3028914979316522,146.0,287.6,96.0,0.0,0,-0.0,,,,,,
74.36308338453881,1.313308164598319,147.0,287.6,96.0,0.0,0,-0.0,,,,,,
75.36308338453881,1.3237248312649856,148.0,287.6,96.0,0.0,0,-0.0,,,,,,
76.36308338453881,1.3341414979316524,149.0,287.6,96.0,0.0,0,-0.0,,,,,,
77.36308338453881,1.3445581645983191,150.0,287.6,96.0,0.0,0,-0.0,,,,,,
78.36308338453881,1.3549748312649859,151.0,287.6,96.0,0.0,0,-0.0,,,,,,
79.36308338453881,1.3653914979316526,152.0,287.6,96.0,0.0,0,-0.0,,,,,,
80.36308338453881,1.3758081645983193,153.0,287.6,96.0,0.0,0,-0.0,,,,,,
81.36308338453881,1.386224831264986,154.0,287.6,96.0,0.0,0,-0.0,,,,,,
82.36308338453881,1.3966414979316528,155.0,287.6,96.0,0.0,0,-0.0,,,,,,
83.36308338453881,1.4070581645983196,156.0,287.6,96.0,0.0,0,-0.0,,,,,,
84.36308338453881,1.4174748312649863,157.0,287.6,96.0,0.0,0,-0.0,,,,,,
85.36308338453881,1.427891497931653,158.0,287.6,96.0,0.0,0,-0.0,,,,,,
86.36308338453881,1.4383081645983198,159.0,287.6,96.0,0.0,0,-0.0,,,,,,
87.36308338453881,1.4487248312649865,160.0,287.6,96.0,0.0,0,-0.0,,,,,,
88.36308338453881,1.4591414979316533,161.0,287.6,96.0,0.0,0,-0.0,,,,,,
89.36308338453881,1.46955816459832,162.0,287.6,96.0,0.0,0,-0.0,,,,,,
90.36308338453881,1.4799748312649867,163.0,287.6,96.0,0.0,0,-0.0,,,,,,
91.36308338453881,1.4903914979316535,164.0,287.6,96.0,0.0,0,-0.0,,,,,,
92.36308338453881,1.5008081645983202,165.0,287.6,96.0,0.0,0,-0.0,,,,,,
93.36308338453881,1.511224831264987,166.0,287.6,96.0,0.0,0,-0.0,,,,,,
94.36308338453881,1.5216414979316537,167.0,287.6,96.0,0.0,0,-0.0,,,,,,
95.36308338453881,1.5320581645983204,168.0,287.6,96.0,0.0,0,0.0,,,,,,
96.36308338453881,1.5424748312649872,169.0,287.6,96.0,0.0,0,0.0,,,,,,
97.36308338453881,1.552891497931654,170.0,287.6,96.0,0.0,0,0.0,,,,,,
98.36308338453881,1.5633081645983207,171.0,287.6,96.0,0.0,0,0.0,,,,,,
99.36308338453881,1.5737248312649874,172.0,287.6,96.0,0.0,0,0.0,,,,,,
100.36308338453881,1.5841414979316542,173.0,287.6,96.0,0.0,0,0.0,,,,,,
101.36308338453881,1.594558164598321,174.0,287.6,96.0,0.0,0,0.0,,,,,,
102.36308338453881,1.6049748312649876,175.0,287.6,96.0,0.0,0,0.0,,,,,,
103.36308338453881,1.6153914979316544,176.0,287.6,96.0,0.0,0,0.0,,,,,,
104.36308338453881,1.6258081645983211,177.0,287.6,96.0,0.0,0,0.0,,,,,,
105.36308338453881,1.6362248312649879,178.0,287.6,96.0,0.0,0,0.0,,,,,,
106.36308338453881,1.6466414979316546,179.0,287.6,96.0,0.0,0,0.0,,,,,,
107.36308338453881,1.6570581645983213,180.0,287.6,96.0,0.0,0,0.0,,,,,,
108.36308338453881,1.667474831264988,181.0,287.6,96.0,0.0,0,0.0,,,,,,
109.36308338453881,1.6778914979316548,182.0,287.6,96.0,0.0,0,0.0,,,,,,
110.36308338453881,1.6883081645983216,183.0,287.6,96.0,0.0,0,0.0,,,,,,
111.36308338453881,1.6987248312649883,184.0,287.6,96.0,0.0,0,0.0,,,,,,
112.36308338453881,1.709141497931655,185.0,287.6,96.0,0.0,0,0.0,,,,,,
113.36308338453881,1.7195581645983218,186.0,287.6,96.0,0.0,0,0.0,,,,,,
114.36308338453881,1.7299748312649885,187.0,287.6,96.0,0.0,0,0.0,,,,,,
115.36308338453881,1.7403914979316553,188.0,287.6,96.0,0.0,0,0.0,,,,,,
116.36308338453881,1.750808164598322,189.0,287.6,96.0,0.0,0,0.0,,,,,,
117.36308338453881,1.7612248312649887,190.0,287.6,96.0,0.0,0,0.0,,,,,,
118.36308338453881,1.7716414979316555,191.0,287.6,96.0,0.0,0,0.0,,,,,,
119.36308338453881,1.7820581645983222,192.0,287.6,96.0,0.0,0,0.0,,,,,,
120.36308338453881,1.792474831264989,193.0,287.6,96.0,0.0,0,0.0,,,,,,
121.36308338453881,1.8028914979316557,194.0,287.6,96.0,0.0,0,0.0,,,,,,
122.36308338453881,1.8133081645983224,195.0,287.6,96.0,0.0,0,0.0,,,,,,
123.36308338453881,1.8237248312649892,196.0,287.6,96.0,0.0,0,0.0,,,,,,
124.36308338453881,1.834141497931656,197.0,287.6,96.0,0.0,0,0.0,,,,,,
125.36308338453881,1.8445581645983227,198.0,287.6,96.0,0.0,0,0.0,,,,,,
126.36308338453881,1.8549748312649894,199.0,287.6,96.0,0.0,0,0.0,,,,,,
127.36308338453881,1.8654786509857968,200.0,287.6,94.40692368682977,0.0,0,0.0,,,,,,
128.3630833845388,1.8761612263681715,200.9956726957314,287.5070705483984,92.81384737365954,0.0,0,0.0,,,,,,
129.3630833845388,1.8870287469304272,201.9913453914628,287.4141410967968,91.22077106048931,0.0,0,0.0,,,,,,
130.3630833845388,1.8980877293280187,202.9870180871942,287.3212116451952,89.62769474731908,0.0,0,0.0,,,,,,
131.3630833845388,1.9093450408207333,203.9826907829256,287.2282821935936,88.03461843414885,0.0,0,0.0,,,,,,
132.3630833845388,1.9208079248825825,204.978363478657,287.135352741992,86.44154212097862,0.0,0,0.0,,,,,,
133.3630833845388,1.9324840291935326,205.9740361743884,287.0424232903904,84.8484658078084,0.0,0,0.0,,,,,,
134.3630833845388,1.9443814362839391,206.9697088701198,286.9494938387888,83.25538949463817,0.0,0,0.0,,,,,,
135.3630833845388,1.9565086971391787,207.9653815658512,286.8565643871872,81.66231318146794,0.0,0,0.0,,,,,,
136.3630833845388,1.9688748681143817,208.9610542615826,286.76363493558557,80.06923686829771,0.0,0,0.0,,,,,,
137.3630833845388,1.9814895515583837,209.956726957314,286.67070548398397,78.47616055512748,0.0,0,0.0,,,,,,
138.3630833845388,1.9943629406033176,210.9523996530454,286.57777603238236,76.88308424195725,0.0,0,0.0,,,,,,
139.3630833845388,2.0075058686431575,211.9480723487768,286.48484658078075,75.29000792878702,0.0,0,0.0,,,,,,
140.3630833845388,2.0209298641028663,212.9437450445082,286.39191712917915,73.69693161561679,0.0,0,0.0,,,,,,
141.3630833845388,2.034647211191836,213.9394177402396,286.29898767757754,72.10385530244656,0.0,0,0.0,,,,,,
142.3630833845388,2.0486710174437874,214.935090435971,286.20605822597594,70.51077898927633,0.0,0,0.0,,,,,,
143.3630833845388,2.063015288973616,215.9307631317024,286.11312877437433,68.9177026761061,0.0,0,0.0,,,,,,
144.3630833845388,2.077695014533995,216.9264358274338,286.0201993227727,67.32462636293587,0.0,0,0.0,,,,,,
145.3630833845388,2.0927262596360383,217.9221085231652,285.9272698711711,65.73155004976564,0.0,0,0.0,,,,,,
146.3630833845388,2.1081262722154617,218.9177812188966,285.8343404195695,64.13847373659542,0.0,0,0.0,,,,,,
147.3630833845388,2.1239136015864886,219.913453914628,285.7414109679679,62.54539742342518,0.0,0,0.0,,,,,,
148.3630833845388,2.1401082327403795,220.9091266103594,285.6484815163663,60.95232111025494,0.0,0,0.0,,,,,,
149.3630833845388,2.156731738426777,221.9047993060908,285.5555520647647,59.359244797084706,0.0,0,0.0,,,,,,
150.3630833845388,2.173807451920327,222.9004720018222,285.4626226131631,57.76616848391447,0.0,0,0.0,,,,,,
151.3630833845388,2.1913606639431946,223.8961446975536,285.3696931615615,56.17309217074423,0.0,0,0.0,,,,,,
152.3630833845388,2.209418847912972,224.891817393285,285.2767637099599,54.580015857574,0.0,0,0.0,,,,,,
153.3630833845388,2.2280119185500094,225.8874900890164,285.1838342583583,52.98693954440376,0.0,0,0.0,,,,,,
154.3630833845388,2.247172529953803,226.8831627847478,285.09090480675667,51.393863231233524,0.0,0,0.0,,,,,,
155.3630833845388,2.266936420604636,227.8788354804792,284.99797535515506,49.80078691806329,0.0,0,0.0,,,,,,
156.3630833845388,2.2873428144434103,228.8745081762106,284.90504590355346,48.20771060489305,0.0,0,0.0,,,,,,
157.3630833845388,2.3084348893354685,229.870180871942,284.81211645195185,46.614634291722815,0.0,0,0.0,,,,,,
158.3630833845388,2.3302603269758837,230.8658535676734,284.71918700035025,45.02155797855258,0.0,0,0.0,,,,,,
159.3630833845388,2.352871961838358,231.8615262634048,284.62625754874864,43.42848166538234,0.0,0,0.0,,,,,,
160.3630833845388,2.3763285513741748,232.8571989591362,284.53332809714703,41.835405352212106,0.0,0,0.0,,,,,,
161.3630833845388,2.4006956957018466,233.8528716548676,284.44039864554543,40.24232903904187,0.0,0,0.0,,,,,,
162.3630833845388,2.4260469430118543,234.848544350599,284.3474691939438,38.649252725871634,0.0,0,0.0,,,,,,
163.3630833845388,2.4524651275827276,235.8442170463304,284.2545397423422,37.0561764127014,0.0,0,0.0,,,,,,
164.3630833845388,2.4800440017274887,236.8398897420618,284.1616102907406,35.46310009953116,0.0,0,0.0,,,,,,
165.3630833845388,2.5088902427145756,237.83556243779321,284.068680839139,33.870023786360925,0.0,0,0.0,,,,,,
166.3630833845388,2.5391259430333744,238.83123513352461,283.9757513875374,32.27694747319069,0.0,0,0.0,,,,,,
167.3630833845388,2.5708917307632215,239.82690782925602,283.8828219359358,30.683871160020455,0.0,0,-0.0,,,,,,
168.3630833845388,2.6043507215632724,240.82258052498742,283.7898924843342,29.090794846850223,0.0,0,-0.0,,,,,,
169.3630833845388,2.6396935832241004,241.81825322071882,283.6969630327326,27.49771853367999,0.0,0,-0.0,,,,,,
170.3630833845388,2.6771451110546014,242.81392591645022,283.604033581131,25.904642220509757,0.0,0,-0.0,,,,,,
171.3630833845388,2.716972889267326,243.80959861218162,283.5111041295294,24.311565907339524,0.0,0,-0.0,,,,,,
172.3630833845388,2.7594988862850385,244.80527130791302,283.41817467792777,22.71848959416929,0.0,0,-0.0,,,,,,
173.3630833845388,2.8051152632233407,245.80094400364442,283.32524522632616,21.12541328099906,0.0,0,-0.0,,,,,,
174.3630833845388,2.8543063765476115,246.79661669937582,283.23231577472455,19.532336967828826,0.0,0,-0.0,,,,,,
175.3630833845388,2.9076801349912538,247.79228939510722,283.13938632312295,17.939260654658593,0.0,0,-0.0,,,,,,
176.3630833845388,2.9660139264944636,248.78796209083862,283.04645687152134,16.34618434148836,0.0,0,-0.0,,,,,,
177.3630833845388,3.030324071439811,249.78363478657002,282.95352741991974,14.753108028318128,0.0,0,-0.0,,,,,,
178.3630833845388,3.101974914676397,250.77930748230142,282.86059796831813,13.160031715147895,0.0,0,-0.0,,,,,,
179.3630833845388,3.1814660704365814,251.77498017803282,282.7676685167165,12.0,0.0,0,0.0,,,,,,
180.3630833845388,3.264799403769915,252.77065287376422,282.6747390651149,12.0,0.0,0,0.0,,,,,,
181.3630833845388,3.3481327371032483,253.76632556949562,282.5818096135133,12.0,0.0,0,0.0,,,,,,
182.3630833845388,3.431466070436582,254.76199826522702,282.4888801619117,12.0,0.0,0,0.0,,,,,,
183.3630833845388,3.5147994037699153,255.75767096095842,282.3959507103101,12.0,0.0,0,0.0,,,,,,
184.3630833845388,3.5981327371032488,256.7533436566898,282.3030212587085,12.0,0.0,0,0.0,,,,,,
185.3630833845388,3.6814660704365822,257.7490163524212,282.2100918071069,12.0,0.0,0,0.0,,,,,,
186.3630833845388,3.7647994037699157,258.7446890481526,282.1171623555053,12.0,0.0,0,0.0,,,,,,
187.3630833845388,3.848132737103249,259.740361743884,282.0242329039037,12.0,0.0,0,0.0,,,,,,
187.62385005739128,3.8915938492453273,260.0,282.0,0.0,0.0,0,0.0,,,,,,
