Distance (in),Time (s),X (in),Y (in),Velocity (in/s),Orientation (deg),Touch,Rotational Velocity (deg/s),Way X (in),Way Y (in),Way Velocity (in/s),Way Orientation (deg),Way Turn Radius (in),Touch this Point
0.0,0.0,270.0,180.0,12.0,0.0,0,0.0,270.0,180.0,12.0,0.0,3.0,0.0
0.999999999999981,0.07463119389229828,269.00055509302086,180.03331483023263,14.798445739541577,0.0,0,0.0,240.0,181.0,96.0,0.0,3.0,0
1.999999999999962,0.13636847375151584,268.0011101860417,180.06662966046525,17.596891479083155,0.0,0,0.0,155.0,180.0,96.0,0.0,3.0,0
2.999999999999943,0.18901081847715245,267.0016652790626,180.09994449069788,20.395337218624732,0.0,0,0.0,78.0,180.0,12.0,0.0,10.0,0.0
3.999999999999924,0.2348938276291669,266.00222037208346,180.1332593209305,23.19378295816631,0.0,0,0.0,74.0,174.0,12.0,0.0,3.0,0.0
4.999999999999905,0.2755557949785994,265.0027754651043,180.16657415116313,25.992228697707887,0.0,0,-0.0,,,,,,
5.999999999999886,0.31206353526890446,264.0033305581252,180.19988898139576,28.790674437249464,0.0,0,-0.0,,,,,,
6.999999999999868,0.34518719878555526,263.00388565114605,180.23320381162839,31.58912017679104,0.0,0,-0.0,,,,,,
7.999999999999849,0.37550093714423904,262.0044407441669,180.266518641861,34.38756591633262,0.0,0,-0.0,,,,,,
8.99999999999983,0.4034442098971242,261.0049958371878,180.29983347209364,37.186011655874196,0.0,0,-0.0,,,,,,
9.99999999999981,0.4293608594210593,260.00555093020864,180.33314830232626,39.984457395415774,0.0,0,-0.0,,,,,,
10.99999999999979,0.4535249742023446,259.0061060232295,180.3664631325589,42.78290313495735,0.0,0,-0.0,,,,,,
11.99999999999977,0.4761585613659176,258.00666111625037,180.39977796279152,45.58134887449893,0.0,0,-0.0,,,,,,
12.999999999999751,0.4974439557932843,257.00721620927123,180.43309279302414,48.379794614040506,0.0,0,0.0,,,,,,
13.999999999999732,0.5175327412002119,256.0077713022921,180.46640762325677,51.17824035358208,0.0,0,0.0,,,,,,
14.99999999999974,0.5365522970839169,255.00832639531293,180.4997224534894,53.97668609312374,0.0,0,0.0,,,,,,
15.99999999999975,0.5546106914060773,254.00888148833377,180.53303728372202,56.775131832665394,0.0,0,0.0,,,,,,
16.99999999999976,0.5718003964765511,253.0094365813546,180.56635211395465,59.57357757220705,0.0,0,0.0,,,,,,
17.99999999999977,0.5882011521044908,252.00999167437544,180.59966694418728,62.37202331174871,0.0,0,0.0,,,,,,
18.99999999999978,0.6038822005374098,251.01054676739628,180.6329817744199,65.17046905129037,0.0,0,0.0,,,,,,
19.99999999999979,0.6189040516402483,250.0111018604171,180.66629660465253,67.96891479083203,0.0,0,0.0,,,,,,
20.9999999999998,0.633319892020636,249.01165695343795,180.69961143488516,70.7673605303737,0.0,0,0.0,,,,,,
21.99999999999981,0.6471767209417902,248.01221204645879,180.73292626511778,73.56580626991536,0.0,0,0.0,,,,,,
22.999999999999822,0.6605162742171803,247.01276713947962,180.7662410953504,76.36425200945702,0.0,0,0.0,,,,,,
23.999999999999833,0.6733757818658943,246.01332223250046,180.79955592558304,79.16269774899868,0.0,0,0.0,,,,,,
24.999999999999844,0.6857885941762184,245.0138773255213,180.83287075581566,81.96114348854034,0.0,0,0.0,,,,,,
25.999999999999854,0.6977847026830077,244.01443241854213,180.8661855860483,84.759589228082,0.0,0,0.0,,,,,,
26.999999999999865,0.7093911765381055,243.01498751156296,180.89950041628092,87.55803496762367,0.0,0,0.0,,,,,,
27.999999999999876,0.7206325302433637,242.0155426045838,180.93281524651354,90.35648070716533,0.0,0,0.0,,,,,,
28.999999999999886,0.731531035306447,241.01609769760464,180.96613007674617,93.154926446707,0.0,0,0.0,,,,,,
29.999999999999897,0.7421069857774618,240.01665279062547,180.9994449069788,95.95337218624866,0.0,0,0.0,,,,,,
30.01666203960728,0.7422806128956093,240.0,181.0,95.97562813526197,0.0,0,0.0,,,,,,
31.016662039607272,0.752698601988427,239.00006919696926,180.98823610819963,96.0,0.0,0,0.0,,,,,,
32.01666203960726,0.7631152686550935,238.00013839393853,180.97647221639926,96.0,0.0,0,0.0,,,,,,
33.016662039607255,0.7735319353217601,237.0002075909078,180.9647083245989,96.0,0.0,0,0.0,,,,,,
34.01666203960725,0.7839486019884268,236.00027678787706,180.95294443279852,96.0,0.0,0,0.0,,,,,,
35.01666203960724,0.7943652686550934,235.00034598484632,180.94118054099815,96.0,0.0,0,0.0,,,,,,
36.01666203960723,0.80478193532176,234.00041518181558,180.92941664919778,96.0,0.0,0,0.0,,,,,,
37.016662039607226,0.8151986019884266,233.00048437878485,180.9176527573974,96.0,0.0,0,0.0,,,,,,
38.01666203960722,0.8256152686550933,232.0005535757541,180.90588886559703,96.0,0.0,0,0.0,,,,,,
39.01666203960721,0.8360319353217599,231.00062277272337,180.89412497379666,96.0,0.0,0,0.0,,,,,,
40.016662039607205,0.8464486019884265,230.00069196969264,180.8823610819963,96.0,0.0,0,0.0,,,,,,
41.0166620396072,0.8568652686550932,229.0007611666619,180.87059719019592,96.0,0.0,0,0.0,,,,,,
42.01666203960719,0.8672819353217598,228.00083036363117,180.85883329839555,96.0,0.0,0,0.0,,,,,,
43.01666203960718,0.8776986019884264,227.00089956060043,180.84706940659518,96.0,0.0,0,0.0,,,,,,
44.016662039607176,0.888115268655093,226.0009687575697,180.8353055147948,96.0,0.0,0,0.0,,,,,,
45.01666203960717,0.8985319353217597,225.00103795453896,180.82354162299444,96.0,0.0,0,0.0,,,,,,
46.01666203960716,0.9089486019884263,224.00110715150822,180.81177773119407,96.0,0.0,0,0.0,,,,,,
47.016662039607155,0.9193652686550929,223.0011763484775,180.8000138393937,96.0,0.0,0,0.0,,,,,,
48.01666203960715,0.9297819353217596,222.00124554544675,180.78824994759333,96.0,0.0,0,0.0,,,,,,
49.01666203960714,0.9401986019884262,221.001314742416,180.77648605579296,96.0,0.0,0,0.0,,,,,,
50.016662039607134,0.9506152686550928,220.00138393938528,180.7647221639926,96.0,0.0,0,0.0,,,,,,
51.01666203960713,0.9610319353217595,219.00145313635454,180.75295827219222,96.0,0.0,0,0.0,,,,,,
52.01666203960712,0.9714486019884261,218.0015223333238,180.74119438039185,96.0,0.0,0,0.0,,,,,,
53.01666203960711,0.9818652686550927,217.00159153029307,180.72943048859148,96.0,0.0,0,0.0,,,,,,
54.016662039607105,0.9922819353217593,216.00166072726233,180.7176665967911,96.0,0.0,0,0.0,,,,,,
55.0166620396071,1.0026986019884259,215.0017299242316,180.70590270499073,96.0,0.0,0,0.0,,,,,,
56.01666203960709,1.0131152686550924,214.00179912120086,180.69413881319036,96.0,0.0,0,0.0,,,,,,
57.016662039607084,1.023531935321759,213.00186831817012,180.68237492139,96.0,0.0,0,0.0,,,,,,
58.01666203960708,1.0339486019884254,212.0019375151394,180.67061102958962,96.0,0.0,0,0.0,,,,,,
59.01666203960707,1.044365268655092,211.00200671210865,180.65884713778925,96.0,0.0,0,-0.0,,,,,,
60.01666203960706,1.0547819353217585,210.00207590907792,180.64708324598888,96.0,0.0,0,-0.0,,,,,,
61.016662039607056,1.065198601988425,209.00214510604718,180.6353193541885,96.0,0.0,0,-0.0,,,,,,
62.01666203960705,1.0756152686550915,208.00221430301644,180.62355546238814,96.0,0.0,0,-0.0,,,,,,
63.01666203960704,1.086031935321758,207.0022834999857,180.61179157058777,96.0,0.0,0,-0.0,,,,,,
64.01666203960703,1.0964486019884245,206.00235269695497,180.6000276787874,96.0,0.0,0,-0.0,,,,,,
65.01666203960701,1.106865268655091,205.00242189392424,180.58826378698703,96.0,0.0,0,-0.0,,,,,,
66.016662039607,1.1172819353217576,204.0024910908935,180.57649989518666,96.0,0.0,0,-0.0,,,,,,
67.01666203960698,1.127698601988424,203.00256028786276,180.5647360033863,96.0,0.0,0,-0.0,,,,,,
68.01666203960697,1.1381152686550906,202.00262948483203,180.55297211158592,96.0,0.0,0,-0.0,,,,,,
69.01666203960696,1.1485319353217571,201.0026986818013,180.54120821978555,96.0,0.0,0,-0.0,,,,,,
70.01666203960694,1.1589486019884236,200.00276787877056,180.52944432798517,96.0,0.0,0,-0.0,,,,,,
71.01666203960693,1.1693652686550902,199.00283707573982,180.5176804361848,96.0,0.0,0,-0.0,,,,,,
72.01666203960691,1.1797819353217567,198.00290627270908,180.50591654438443,96.0,0.0,0,-0.0,,,,,,
73.0166620396069,1.1901986019884232,197.00297546967835,180.49415265258406,96.0,0.0,0,-0.0,,,,,,
74.01666203960689,1.2006152686550897,196.0030446666476,180.4823887607837,96.0,0.0,0,-0.0,,,,,,
75.01666203960687,1.2110319353217562,195.00311386361687,180.47062486898332,96.0,0.0,0,-0.0,,,,,,
76.01666203960686,1.2214486019884228,194.00318306058614,180.45886097718295,96.0,0.0,0,-0.0,,,,,,
77.01666203960684,1.2318652686550893,193.0032522575554,180.44709708538258,96.0,0.0,0,-0.0,,,,,,
78.01666203960683,1.2422819353217558,192.00332145452467,180.4353331935822,96.0,0.0,0,-0.0,,,,,,
79.01666203960681,1.2526986019884223,191.00339065149393,180.42356930178184,96.0,0.0,0,-0.0,,,,,,
80.0166620396068,1.2631152686550888,190.0034598484632,180.41180540998147,96.0,0.0,0,-0.0,,,,,,
81.01666203960679,1.2735319353217553,189.00352904543246,180.4000415181811,96.0,0.0,0,-0.0,,,,,,
82.01666203960677,1.2839486019884219,188.00359824240172,180.38827762638073,96.0,0.0,0,-0.0,,,,,,
83.01666203960676,1.2943652686550884,187.003667439371,180.37651373458036,96.0,0.0,0,-0.0,,,,,,
84.01666203960674,1.304781935321755,186.00373663634025,180.36474984278,96.0,0.0,0,-0.0,,,,,,
85.01666203960673,1.3151986019884214,185.0038058333095,180.35298595097962,96.0,0.0,0,0.0,,,,,,
86.01666203960671,1.325615268655088,184.00387503027878,180.34122205917924,96.0,0.0,0,0.0,,,,,,
87.0166620396067,1.3360319353217545,183.00394422724804,180.32945816737887,96.0,0.0,0,0.0,,,,,,
88.01666203960669,1.346448601988421,182.0040134242173,180.3176942755785,96.0,0.0,0,0.0,,,,,,
89.01666203960667,1.3568652686550875,181.00408262118657,180.30593038377813,96.0,0.0,0,0.0,,,,,,
90.01666203960666,1.367281935321754,180.00415181815583,180.29416649197776,96.0,0.0,0,0.0,,,,,,
91.01666203960664,1.3776986019884205,179.0042210151251,180.2824026001774,96.0,0.0,0,0.0,,,,,,
92.01666203960663,1.388115268655087,178.00429021209436,180.27063870837702,96.0,0.0,0,0.0,,,,,,
93.01666203960662,1.3985319353217536,177.00435940906362,180.25887481657665,96.0,0.0,0,0.0,,,,,,
94.0166620396066,1.40894860198842,176.0044286060329,180.24711092477628,96.0,0.0,0,0.0,,,,,,
95.01666203960659,1.4193652686550866,175.00449780300215,180.2353470329759,96.0,0.0,0,0.0,,,,,,
96.01666203960657,1.4297819353217531,174.00456699997142,180.22358314117554,96.0,0.0,0,0.0,,,,,,
97.01666203960656,1.4401986019884196,173.00463619694068,180.21181924937517,96.0,0.0,0,0.0,,,,,,
98.01666203960654,1.4506152686550862,172.00470539390994,180.2000553575748,96.0,0.0,0,0.0,,,,,,
99.01666203960653,1.4610319353217527,171.0047745908792,180.18829146577443,96.0,0.0,0,0.0,,,,,,
100.01666203960652,1.4714486019884192,170.00484378784847,180.17652757397406,96.0,0.0,0,0.0,,,,,,
101.0166620396065,1.4818652686550857,169.00491298481774,180.16476368217369,96.0,0.0,0,0.0,,,,,,
102.01666203960649,1.4922819353217522,168.004982181787,180.15299979037331,96.0,0.0,0,0.0,,,,,,
103.01666203960647,1.5026986019884188,167.00505137875626,180.14123589857294,96.0,0.0,0,0.0,,,,,,
104.01666203960646,1.5131152686550853,166.00512057572553,180.12947200677257,96.0,0.0,0,0.0,,,,,,
105.01666203960644,1.5235319353217518,165.0051897726948,180.1177081149722,96.0,0.0,0,0.0,,,,,,
106.01666203960643,1.5339486019884183,164.00525896966406,180.10594422317183,96.0,0.0,0,0.0,,,,,,
107.01666203960642,1.5443652686550848,163.00532816663332,180.09418033137146,96.0,0.0,0,0.0,,,,,,
108.0166620396064,1.5547819353217514,162.00539736360258,180.0824164395711,96.0,0.0,0,0.0,,,,,,
109.01666203960639,1.5651986019884179,161.00546656057185,180.07065254777072,96.0,0.0,0,0.0,,,,,,
110.01666203960637,1.5756152686550844,160.0055357575411,180.05888865597035,96.0,0.0,0,0.0,,,,,,
111.01666203960636,1.586031935321751,159.00560495451037,180.04712476416998,96.0,0.0,0,0.0,,,,,,
112.01666203960635,1.5964486019884174,158.00567415147964,180.0353608723696,96.0,0.0,0,0.0,,,,,,
113.01666203960633,1.606865268655084,157.0057433484489,180.02359698056924,96.0,0.0,0,0.0,,,,,,
114.01666203960632,1.6172819353217505,156.00581254541817,180.01183308876887,96.0,0.0,0,0.0,,,,,,
115.0166620396063,1.627698601988417,155.00588174238743,180.0000691969685,96.0,0.0,0,0.0,,,,,,
115.02254418902064,1.6277598764260819,155.0,180.0,95.99358291959115,0.0,0,0.0,,,,,,
116.02254418902064,1.6382367730018998,154.0,180.0,94.90264150398933,0.0,0,0.0,,,,,,
117.02254418902064,1.6488348016579306,153.0,180.0,93.81170008838751,0.0,0,0.0,,,,,,
118.02254418902064,1.6595567961745026,152.0,180.0,92.72075867278569,0.0,0,0.0,,,,,,
119.02254418902064,1.6704056909496388,151.0,180.0,91.62981725718387,0.0,0,0.0,,,,,,
120.02254418902064,1.681384525819556,150.0,180.0,90.53887584158205,0.0,0,0.0,,,,,,
121.02254418902064,1.6924964511713465,149.0,180.0,89.44793442598024,0.0,0,0.0,,,,,,
122.02254418902064,1.7037447333693516,148.0,180.0,88.35699301037842,0.0,0,0.0,,,,,,
123.02254418902064,1.7151327605186162,147.0,180.0,87.2660515947766,0.0,0,0.0,,,,,,
124.02254418902064,1.7266640485908595,146.0,180.0,86.17511017917478,0.0,0,0.0,,,,,,
125.02254418902064,1.7383422479406805,145.0,180.0,85.08416876357296,0.0,0,0.0,,,,,,
126.02254418902064,1.7501711502422073,144.0,180.0,83.99322734797114,0.0,0,0.0,,,,,,
127.02254418902064,1.7621546958791743,143.0,180.0,82.90228593236932,0.0,0,0.0,,,,,,
128.02254418902064,1.7742969818244627,142.0,180.0,81.8113445167675,0.0,0,0.0,,,,,,
129.02254418902064,1.7866022700485298,141.0,180.0,80.72040310116569,0.0,0,0.0,,,,,,
130.02254418902064,1.7990749964999058,140.0,180.0,79.62946168556387,0.0,0,0.0,,,,,,
131.02254418902064,1.8117197807051084,139.0,180.0,78.53852026996205,0.0,0,0.0,,,,,,
132.02254418902064,1.8245414360399597,138.0,180.0,77.44757885436023,0.0,0,0.0,,,,,,
133.02254418902064,1.8375449807294526,137.0,180.0,76.35663743875841,0.0,0,0.0,,,,,,
134.02254418902064,1.850735649639072,136.0,180.0,75.2656960231566,0.0,0,0.0,,,,,,
135.02254418902064,1.8641189069269015,135.0,180.0,74.17475460755477,0.0,0,0.0,,,,,,
136.02254418902064,1.8777004596330436,134.0,180.0,73.08381319195296,0.0,0,0.0,,,,,,
137.02254418902064,1.8914862722909282,133.0,180.0,71.99287177635114,0.0,0,0.0,,,,,,
138.02254418902064,1.905482582654136,132.0,180.0,70.90193036074932,0.0,0,0.0,,,,,,
139.02254418902064,1.9196959186425122,131.0,180.0,69.8109889451475,0.0,0,0.0,,,,,,
140.02254418902064,1.9341331166228029,130.0,180.0,68.72004752954568,0.0,0,0.0,,,,,,
141.02254418902064,1.9488013411519363,129.0,180.0,67.62910611394386,0.0,0,0.0,,,,,,
142.02254418902064,1.9637081063256738,128.0,180.0,66.53816469834204,0.0,0,0.0,,,,,,
143.02254418902064,1.978861298891859,127.0,180.0,65.44722328274023,0.0,0,0.0,,,,,,
144.02254418902064,1.9942692033062328,126.0,180.0,64.3562818671384,0.0,0,0.0,,,,,,
145.02254418902064,2.009940528930083,125.0,180.0,63.26534045153659,0.0,0,0.0,,,,,,
146.02254418902064,2.0258844395932565,124.0,180.0,62.17439903593477,0.0,0,0.0,,,,,,
147.02254418902064,2.042110585773759,123.0,180.0,61.08345762033295,0.0,0,0.0,,,,,,
148.02254418902064,2.058629139676862,122.0,180.0,59.99251620473113,0.0,0,0.0,,,,,,
149.02254418902064,2.0754508335329787,121.0,180.0,58.90157478912931,0.0,0,0.0,,,,,,
150.02254418902064,2.0925870014753474,120.0,180.0,57.810633373527494,0.0,0,0.0,,,,,,
151.02254418902064,2.110049625406712,119.0,180.0,56.719691957925676,0.0,0,0.0,,,,,,
152.02254418902064,2.1278513853198104,118.0,180.0,55.62875054232386,0.0,0,0.0,,,,,,
153.02254418902064,2.14600571460093,117.0,180.0,54.53780912672204,0.0,0,0.0,,,,,,
154.02254418902064,2.1645268609206374,116.0,180.0,53.44686771112022,0.0,0,0.0,,,,,,
155.02254418902064,2.1834299534030013,115.0,180.0,52.3559262955184,0.0,0,0.0,,,,,,
156.02254418902064,2.202731076866526,114.0,180.0,51.26498487991658,0.0,0,0.0,,,,,,
157.02254418902064,2.2224473540494367,113.0,180.0,50.174043464314764,0.0,0,0.0,,,,,,
158.02254418902064,2.242597036872398,112.0,180.0,49.083102048712945,0.0,0,0.0,,,,,,
159.02254418902064,2.2631996079574255,111.0,180.0,47.992160633111126,0.0,0,0.0,,,,,,
160.02254418902064,2.2842758938179184,110.0,180.0,46.90121921750931,0.0,0,-0.0,,,,,,
161.02254418902064,2.3058481913678235,109.0,180.0,45.81027780190749,0.0,0,-0.0,,,,,,
162.02254418902064,2.327940409675989,108.0,180.0,44.71933638630567,0.0,0,-0.0,,,,,,
163.02254418902064,2.350578229224723,107.0,180.0,43.62839497070385,0.0,0,-0.0,,,,,,
164.02254418902064,2.373789281331997,106.0,180.0,42.53745355510203,0.0,0,-0.0,,,,,,
165.02254418902064,2.397603350880377,105.0,180.0,41.446512139500214,0.0,0,-0.0,,,,,,
166.02254418902064,2.4220526060825924,104.0,180.0,40.355570723898396,0.0,0,-0.0,,,,,,
167.02254418902064,2.4471718597291705,103.0,180.0,39.26462930829658,0.0,0,-0.0,,,,,,
168.02254418902064,2.47299886724031,102.0,180.0,38.17368789269476,0.0,0,-0.0,,,,,,
169.02254418902064,2.4995746679243096,101.0,180.0,37.08274647709294,0.0,0,-0.0,,,,,,
170.02254418902064,2.5269439771830053,100.0,180.0,35.99180506149112,0.0,0,-0.0,,,,,,
171.02254418902064,2.5551556390722663,99.0,180.0,34.9008636458893,0.0,0,-0.0,,,,,,
172.02254418902064,2.58426315071686,98.0,180.0,33.809922230287484,0.0,0,-0.0,,,,,,
173.02254418902064,2.6143252727189017,97.0,180.0,32.718980814685665,0.0,0,-0.0,,,,,,
174.02254418902064,2.6454067430551462,96.0,180.0,31.628039399083843,0.0,0,-0.0,,,,,,
175.02254418902064,2.677579116256736,95.0,180.0,30.53709798348202,0.0,0,-0.0,,,,,,
176.02254418902064,2.7109217552142044,94.0,180.0,29.446156567880198,0.0,0,-0.0,,,,,,
177.02254418902064,2.7455230101754684,93.0,180.0,28.355215152278376,0.0,0,-0.0,,,,,,
178.02254418902064,2.781481628996886,92.0,180.0,27.264273736676554,0.0,0,-0.0,,,,,,
179.02254418902064,2.8189084553004173,91.0,180.0,26.17333232107473,0.0,0,-0.0,,,,,,
180.02254418902064,2.857928488071394,90.0,180.0,25.08239090547291,0.0,0,0.0,,,,,,
181.02254418902064,2.898683399117438,89.0,180.0,23.991449489871087,0.0,0,0.0,,,,,,
182.02254418902064,2.9413346362142114,88.0,180.0,22.900508074269265,0.0,0,0.0,,,,,,
183.02254418902064,2.9860672834295525,87.0,180.0,21.809566658667443,0.0,0,0.0,,,,,,
184.02254418902064,3.0330949117054327,86.0,180.0,20.71862524306562,0.0,0,0.0,,,,,,
185.02254418902064,3.0826657410098877,85.0,180.0,19.627683827463798,0.0,0,0.0,,,,,,
186.02254418902064,3.13507056395831,84.0,180.0,18.536742411861976,0.0,0,0.0,,,,,,
187.0223457449945,3.1906417074049047,83.00021756734739,179.99381625622917,17.446017487066936,0.0,0,0.0,,,,,,
188.0219291304081,3.2497859444451946,82.00425738063994,179.90878537425957,16.355530573571777,0.0,0,0.0,,,,,,
189.02151251582166,3.313009551836225,81.02176176988247,179.72474918423933,15.26504366007665,0.0,0,0.0,,,,,,
190.0210959012352,3.3809169535404604,80.0625475064478,179.4435465149449,14.174556746581523,0.0,0,0.0,,,,,,
191.02067928664877,3.4542576541434133,79.13619874218209,179.06798705049454,13.084069833086396,0.0,0,0.0,,,,,,
192.02026267206233,3.5311563937202126,78.25197124772768,178.60182325691366,12.913323385960238,0.0,0,0.0,,,,,,
193.01984605747592,3.609078694069,77.4186999319224,178.04971288873443,12.742576938834075,0.0,0,0.0,,,,,,
194.01942944288948,3.688052170983775,76.64471056631095,177.41717245025228,12.571830491707917,0.0,0,-0.0,,,,,,
195.01901282830306,3.7681055731576407,75.93773659678759,176.71052207643842,12.401084044581754,0.0,0,-0.0,,,,,,
196.01901282830306,3.849302907500853,75.38303640056236,175.87847178210058,12.230266432346719,0.0,0,0.0,,,,,,
197.01901282830306,3.9316422836200347,74.82833620433713,175.04642148776273,12.059448820111683,0.0,0,0.0,,,,,,
198.01901282830306,4.014769707483883,74.27363600811191,174.21437119342488,12.0,0.0,0,0.0,,,,,,
198.36662133439265,4.043737082991349,74.0,174.0,12.0,0.0,0,0.0,,,,,,
