Distance (in),Time (s),X (in),Y (in),Velocity (in/s),Orientation (deg),Touch,Rotational Velocity (deg/s),Way X (in),Way Y (in),Way Velocity (in/s),Way Orientation (deg),Way Turn Radius (in),Touch this Point
0.0,0.0,74.0,200.85,12.0,0.0,0,0.0,74.0,200.85,12.0,0.0,3.0,0
1.0000000000000089,0.07936452817527047,74.18841061712202,199.86790965825148,13.200175015003822,0.0,0,0.0,78.0,180.0,36.0,0.0,10.0,0.0
2.0000000000000178,0.1518269178123654,74.37682123424403,198.88581931650296,14.400350030007644,0.0,0,0.0,140.0,180.0,96.0,0.0,3.0,0.0
3.0000000000000266,0.21849163992460013,74.56523185136605,197.90372897475444,15.600525045011466,0.0,0,0.0,200.0,180.0,96.0,0.0,3.0,0.0
4.0000000000000355,0.28021770100769594,74.75364246848807,196.92163863300593,16.800700060015288,0.0,0,0.0,282.0,180.0,12.0,0.0,3.0,0
5.000000000000044,0.337686364200088,74.94205308561008,195.9395482912574,18.00087507501911,0.0,0,-0.0,,,,,,
6.000000000000053,0.3914470228522209,75.1304637027321,194.9574579495089,19.20105009002293,0.0,0,-0.0,,,,,,
7.000000000000062,0.4419491717855736,75.31887431985412,193.97536760776038,20.401225105026754,0.0,0,-0.0,,,,,,
8.000000000000071,0.48956524314501054,75.50728493697613,192.99327726601186,21.601400120030576,0.0,0,-0.0,,,,,,
9.00000000000008,0.5346072699126173,75.69569555409815,192.01118692426334,22.801575135034398,0.0,0,-0.0,,,,,,
10.000000000000089,0.5773392764061366,75.88410617122017,191.02909658251482,24.00175015003822,0.0,0,-0.0,,,,,,
11.000000000000098,0.617986646489628,76.07251678834218,190.0470062407663,25.20192516504204,0.0,0,0.0,,,,,,
12.000000000000107,0.6567433129827079,76.2609274054642,189.0649158990178,26.402100180045863,0.0,0,0.0,,,,,,
12.999999810732968,0.6937773424661866,76.44939365875656,188.0828364252298,27.602274967895983,0.0,0,0.0,,,,,,
13.999583196146537,0.7292209067194024,76.68982228730198,187.11259881568736,28.801949972482273,0.0,0,0.0,,,,,,
14.99916658156012,0.7632182746097442,77.02591190967662,186.17121116433063,30.00162497706858,0.0,0,0.0,,,,,,
15.99874996697369,0.7958828371641552,77.4543044294702,185.2680795053906,31.201299981654874,0.0,0,0.0,,,,,,
16.99833335238726,0.827315152625139,77.97071949023264,184.41222763186775,32.40097498624117,0.0,0,0.0,,,,,,
17.99791673780083,0.8576048124861154,78.56999724338095,183.6122069327753,33.600649990827456,0.0,0,0.0,,,,,,
18.997500123214383,0.886831980245482,79.24614990370057,182.87601095048694,34.80032499541373,0.0,0,0.0,,,,,,
19.99708350862794,0.9147205764777295,79.99242157731591,182.2109955119036,36.88369789977534,0.0,0,0.0,,,,,,
20.99666689404152,0.9410771553890259,80.80135576434886,181.62380523146274,38.967070804136995,0.0,0,0.0,,,,,,
21.99625027945509,0.9660612702169296,81.66486986180064,181.12030712034723,41.05044370849863,0.0,0,0.0,,,,,,
22.99583366486866,0.9898087826758579,82.57433592224935,180.705531965249,43.13381661286026,0.0,0,0.0,,,,,,
23.995417050282217,1.0124363322465293,83.52066686144848,180.38362406241137,45.21718951722187,0.0,0,0.0,,,,,,
24.995000435695783,1.034044799042712,84.49440725346898,180.15779980919086,47.30056242158349,0.0,0,0.0,,,,,,
25.995000435695783,1.054730452738159,85.49440725346898,180.15779980919086,49.38480365124304,0.0,0,0.0,,,,,,
26.995000435695783,1.074561128801676,86.49440725346898,180.15779980919086,51.46904488090259,0.0,0,0.0,,,,,,
27.995000435695783,1.093604697737149,87.49440725346898,180.15779980919086,53.553286110562134,0.0,0,0.0,,,,,,
28.995000435695783,1.1119212569493528,88.49440725346898,180.15779980919086,55.63752734022168,0.0,0,0.0,,,,,,
29.995000435695783,1.129564274082999,89.49440725346898,180.15779980919086,57.72176856988123,0.0,0,0.0,,,,,,
30.995000435695783,1.1465815276016815,90.49440725346898,180.15779980919086,59.806009799540774,0.0,0,0.0,,,,,,
31.995000435695783,1.1630158862777835,91.49440725346898,180.15779980919086,61.89025102920032,0.0,0,0.0,,,,,,
32.995000435695786,1.1789059596037403,92.49440725346898,180.15779980919086,63.974492258859875,0.0,0,-0.0,,,,,,
33.995000435695786,1.1942866439519506,93.49440725346898,180.15779980919086,66.05873348851942,0.0,0,-0.0,,,,,,
34.995000435695786,1.2091895839124434,94.49440725346898,180.15779980919086,68.14297471817898,0.0,0,-0.0,,,,,,
35.995000435695786,1.223643564140218,95.49440725346898,180.15779980919086,70.22721594783853,0.0,0,-0.0,,,,,,
36.995000435695786,1.2376748439055443,96.49440725346898,180.15779980919086,72.31145717749808,0.0,0,-0.0,,,,,,
37.995000435695786,1.251307444115327,97.49440725346898,180.15779980919086,74.39569840715764,0.0,0,-0.0,,,,,,
38.995000435695786,1.2645633946844776,98.49440725346898,180.15779980919086,76.47993963681719,0.0,0,-0.0,,,,,,
39.995000435695786,1.2774629486534237,99.49440725346898,180.15779980919086,78.56418086647675,0.0,0,-0.0,,,,,,
40.995000435695786,1.2900247682756407,100.49440725346898,180.15779980919086,80.6484220961363,0.0,0,-0.0,,,,,,
41.995000435695786,1.3022660873661278,101.49440725346898,180.15779980919086,82.73266332579585,0.0,0,-0.0,,,,,,
42.995000435695786,1.314202853454462,102.49440725346898,180.15779980919086,84.81690455545541,0.0,0,-0.0,,,,,,
43.995000435695786,1.3258498526839162,103.49440725346898,180.15779980919086,86.90114578511496,0.0,0,-0.0,,,,,,
44.995000435695786,1.3372208199101305,104.49440725346898,180.15779980919086,88.98538701477452,0.0,0,-0.0,,,,,,
45.995000435695786,1.3483285360552253,105.49440725346898,180.15779980919086,91.06962824443407,0.0,0,-0.0,,,,,,
46.995000435695786,1.3591849144476047,106.49440725346898,180.15779980919086,93.15386947409363,0.0,0,-0.0,,,,,,
47.995000435695786,1.3698010776097094,107.49440725346898,180.15779980919086,95.23811070375318,0.0,0,-0.0,,,,,,
48.995000435695786,1.380259244094622,108.49440725346898,180.15779980919086,96.0,0.0,0,-0.0,,,,,,
49.995000435695786,1.3906759107612887,109.49440725346898,180.15779980919086,96.0,0.0,0,-0.0,,,,,,
50.995000435695786,1.4010925774279555,110.49440725346898,180.15779980919086,96.0,0.0,0,-0.0,,,,,,
51.995000435695786,1.4115092440946222,111.49440725346898,180.15779980919086,96.0,0.0,0,-0.0,,,,,,
52.995000435695786,1.421925910761289,112.49440725346898,180.15779980919086,96.0,0.0,0,0.0,,,,,,
53.995000435695786,1.4323425774279557,113.49440725346898,180.15779980919086,96.0,0.0,0,0.0,,,,,,
54.995000435695786,1.4427592440946224,114.49440725346898,180.15779980919086,96.0,0.0,0,0.0,,,,,,
55.995000435695786,1.4531759107612892,115.49440725346898,180.15779980919086,96.0,0.0,0,0.0,,,,,,
56.995000435695786,1.463592577427956,116.49440725346898,180.15779980919086,96.0,0.0,0,0.0,,,,,,
57.995000435695786,1.4740092440946226,117.49440725346898,180.15779980919086,96.0,0.0,0,0.0,,,,,,
58.995000435695786,1.4844259107612894,118.49440725346898,180.15779980919086,96.0,0.0,0,0.0,,,,,,
59.995000435695786,1.4948425774279561,119.49440725346898,180.15779980919086,96.0,0.0,0,0.0,,,,,,
60.995000435695786,1.5052592440946229,120.49440725346898,180.15779980919086,96.0,0.0,0,0.0,,,,,,
61.995000435695786,1.5156759107612896,121.49440725346898,180.15779980919086,96.0,0.0,0,0.0,,,,,,
62.995000435695786,1.5260925774279563,122.49440725346898,180.15779980919086,96.0,0.0,0,0.0,,,,,,
63.995000435695786,1.536509244094623,123.49440725346898,180.15779980919086,96.0,0.0,0,0.0,,,,,,
64.99500043569579,1.5469259107612898,124.49440725346898,180.15779980919086,96.0,0.0,0,0.0,,,,,,
65.99500043569579,1.5573425774279566,125.49440725346898,180.15779980919086,96.0,0.0,0,0.0,,,,,,
66.99500043569579,1.5677592440946233,126.49440725346898,180.15779980919086,96.0,0.0,0,0.0,,,,,,
67.99500043569579,1.57817591076129,127.49440725346898,180.15779980919086,96.0,0.0,0,0.0,,,,,,
68.99500043569579,1.5885925774279568,128.49440725346898,180.15779980919086,96.0,0.0,0,0.0,,,,,,
69.99500043569579,1.5990092440946235,129.49440725346898,180.15779980919086,96.0,0.0,0,0.0,,,,,,
70.99500043569579,1.6094259107612903,130.49440725346898,180.15779980919086,96.0,0.0,0,0.0,,,,,,
71.99500043569579,1.619842577427957,131.49440725346898,180.15779980919086,96.0,0.0,0,0.0,,,,,,
72.99500043569579,1.6302592440946237,132.49440725346898,180.15779980919086,96.0,0.0,0,0.0,,,,,,
73.99500043569579,1.6406759107612905,133.49440725346898,180.15779980919086,96.0,0.0,0,0.0,,,,,,
74.99500043569579,1.6510925774279572,134.49440725346898,180.15779980919086,96.0,0.0,0,0.0,,,,,,
75.99500043569579,1.661509244094624,135.49440725346898,180.15779980919086,96.0,0.0,0,0.0,,,,,,
76.99500043569579,1.6719259107612907,136.49440725346898,180.15779980919086,96.0,0.0,0,0.0,,,,,,
77.99500043569579,1.6823425774279575,137.49440725346898,180.15779980919086,96.0,0.0,0,0.0,,,,,,
78.99500043569579,1.6927592440946242,138.49440725346898,180.15779980919086,96.0,0.0,0,0.0,,,,,,
79.99500043569579,1.703175910761291,139.49440725346898,180.15779980919086,96.0,0.0,0,0.0,,,,,,
80.52464635999377,1.7086930558060616,140.0,180.0,96.0,0.0,0,0.0,,,,,,
81.52464635999377,1.7191097224727283,141.0,180.0,96.0,0.0,0,0.0,,,,,,
82.52464635999377,1.729526389139395,142.0,180.0,96.0,0.0,0,0.0,,,,,,
83.52464635999377,1.7399430558060618,143.0,180.0,96.0,0.0,0,0.0,,,,,,
84.52464635999377,1.7503597224727285,144.0,180.0,96.0,0.0,0,0.0,,,,,,
85.52464635999377,1.7607763891393953,145.0,180.0,96.0,0.0,0,0.0,,,,,,
86.52464635999377,1.771193055806062,146.0,180.0,96.0,0.0,0,0.0,,,,,,
87.52464635999377,1.7816097224727288,147.0,180.0,96.0,0.0,0,0.0,,,,,,
88.52464635999377,1.7920263891393955,148.0,180.0,96.0,0.0,0,0.0,,,,,,
89.52464635999377,1.8024430558060622,149.0,180.0,96.0,0.0,0,0.0,,,,,,
90.52464635999377,1.812859722472729,150.0,180.0,96.0,0.0,0,0.0,,,,,,
91.52464635999377,1.8232763891393957,151.0,180.0,96.0,0.0,0,0.0,,,,,,
92.52464635999377,1.8336930558060625,152.0,180.0,96.0,0.0,0,0.0,,,,,,
93.52464635999377,1.8441097224727292,153.0,180.0,96.0,0.0,0,0.0,,,,,,
94.52464635999377,1.854526389139396,154.0,180.0,96.0,0.0,0,0.0,,,,,,
95.52464635999377,1.8649430558060627,155.0,180.0,96.0,0.0,0,0.0,,,,,,
96.52464635999377,1.8753597224727294,156.0,180.0,96.0,0.0,0,0.0,,,,,,
97.52464635999377,1.8857763891393962,157.0,180.0,96.0,0.0,0,0.0,,,,,,
98.52464635999377,1.896193055806063,158.0,180.0,96.0,0.0,0,0.0,,,,,,
99.52464635999377,1.9066097224727296,159.0,180.0,96.0,0.0,0,0.0,,,,,,
100.52464635999377,1.9170263891393964,160.0,180.0,96.0,0.0,0,0.0,,,,,,
101.52464635999377,1.9274430558060631,161.0,180.0,96.0,0.0,0,-0.0,,,,,,
102.52464635999377,1.9378597224727299,162.0,180.0,96.0,0.0,0,-0.0,,,,,,
103.52464635999377,1.9482763891393966,163.0,180.0,96.0,0.0,0,-0.0,,,,,,
104.52464635999377,1.9586930558060633,164.0,180.0,96.0,0.0,0,-0.0,,,,,,
105.52464635999377,1.96910972247273,165.0,180.0,96.0,0.0,0,-0.0,,,,,,
106.52464635999377,1.9795263891393968,166.0,180.0,96.0,0.0,0,-0.0,,,,,,
107.52464635999377,1.9899430558060636,167.0,180.0,96.0,0.0,0,-0.0,,,,,,
108.52464635999377,2.00035972247273,168.0,180.0,96.0,0.0,0,-0.0,,,,,,
109.52464635999377,2.0107763891393966,169.0,180.0,96.0,0.0,0,-0.0,,,,,,
110.52464635999377,2.021193055806063,170.0,180.0,96.0,0.0,0,-0.0,,,,,,
111.52464635999377,2.0316097224727296,171.0,180.0,96.0,0.0,0,-0.0,,,,,,
112.52464635999377,2.042026389139396,172.0,180.0,96.0,0.0,0,-0.0,,,,,,
113.52464635999377,2.0524430558060627,173.0,180.0,96.0,0.0,0,-0.0,,,,,,
114.52464635999377,2.062859722472729,174.0,180.0,96.0,0.0,0,-0.0,,,,,,
115.52464635999377,2.0732763891393957,175.0,180.0,96.0,0.0,0,-0.0,,,,,,
116.52464635999377,2.0836930558060622,176.0,180.0,96.0,0.0,0,-0.0,,,,,,
117.52464635999377,2.0941097224727288,177.0,180.0,96.0,0.0,0,-0.0,,,,,,
118.52464635999377,2.1045263891393953,178.0,180.0,96.0,0.0,0,-0.0,,,,,,
119.52464635999377,2.114943055806062,179.0,180.0,96.0,0.0,0,0.0,,,,,,
120.52464635999377,2.1253597224727283,180.0,180.0,96.0,0.0,0,0.0,,,,,,
121.52464635999377,2.135776389139395,181.0,180.0,96.0,0.0,0,0.0,,,,,,
122.52464635999377,2.1461930558060613,182.0,180.0,96.0,0.0,0,0.0,,,,,,
123.52464635999377,2.156609722472728,183.0,180.0,96.0,0.0,0,0.0,,,,,,
124.52464635999377,2.1670263891393944,184.0,180.0,96.0,0.0,0,0.0,,,,,,
125.52464635999377,2.177443055806061,185.0,180.0,96.0,0.0,0,0.0,,,,,,
126.52464635999377,2.1878597224727274,186.0,180.0,96.0,0.0,0,0.0,,,,,,
127.52464635999377,2.198276389139394,187.0,180.0,96.0,0.0,0,0.0,,,,,,
128.52464635999377,2.2086930558060605,188.0,180.0,96.0,0.0,0,0.0,,,,,,
129.52464635999377,2.219109722472727,189.0,180.0,96.0,0.0,0,0.0,,,,,,
130.52464635999377,2.2295263891393935,190.0,180.0,96.0,0.0,0,0.0,,,,,,
131.52464635999377,2.23994305580606,191.0,180.0,96.0,0.0,0,0.0,,,,,,
132.52464635999377,2.2503597224727265,192.0,180.0,96.0,0.0,0,0.0,,,,,,
133.52464635999377,2.260776389139393,193.0,180.0,96.0,0.0,0,0.0,,,,,,
134.52464635999377,2.2711930558060596,194.0,180.0,96.0,0.0,0,0.0,,,,,,
135.52464635999377,2.281609722472726,195.0,180.0,96.0,0.0,0,0.0,,,,,,
136.52464635999377,2.2920263891393926,196.0,180.0,96.0,0.0,0,0.0,,,,,,
137.52464635999377,2.302443055806059,197.0,180.0,96.0,0.0,0,0.0,,,,,,
138.52464635999377,2.3128597224727256,198.0,180.0,96.0,0.0,0,0.0,,,,,,
139.52464635999377,2.323276389139392,199.0,180.0,96.0,0.0,0,0.0,,,,,,
140.52464635999377,2.3337489306464163,200.0,180.0,94.97560975609755,0.0,0,0.0,,,,,,
141.52464635999377,2.344335039605879,201.0,180.0,93.95121951219511,0.0,0,0.0,,,,,,
142.52464635999377,2.3550372061420317,202.0,180.0,92.92682926829266,0.0,0,0.0,,,,,,
143.52464635999377,2.3658580031861067,203.0,180.0,91.90243902439022,0.0,0,0.0,,,,,,
144.52464635999377,2.3768000901890423,204.0,180.0,90.87804878048777,0.0,0,0.0,,,,,,
145.52464635999377,2.387866217044643,205.0,180.0,89.85365853658533,0.0,0,0.0,,,,,,
146.52464635999377,2.3990592282376544,206.0,180.0,88.82926829268288,0.0,0,0.0,,,,,,
147.52464635999377,2.4103820672324074,207.0,180.0,87.80487804878044,0.0,0,0.0,,,,,,
148.52464635999377,2.4218377811189677,208.0,180.0,86.78048780487799,0.0,0,0.0,,,,,,
149.52464635999377,2.4334295255351397,209.0,180.0,85.75609756097555,0.0,0,0.0,,,,,,
150.52464635999377,2.4451605698842096,210.0,180.0,84.7317073170731,0.0,0,0.0,,,,,,
151.52464635999377,2.457034302870019,211.0,180.0,83.70731707317066,0.0,0,0.0,,,,,,
152.52464635999377,2.469054238372804,212.0,180.0,82.68292682926821,0.0,0,0.0,,,,,,
153.52464635999377,2.481224021691296,213.0,180.0,81.65853658536577,0.0,0,0.0,,,,,,
154.52464635999377,2.4935474361788224,214.0,180.0,80.63414634146332,0.0,0,0.0,,,,,,
155.52464635999377,2.506028410303632,215.0,180.0,79.60975609756088,0.0,0,0.0,,,,,,
156.52464635999377,2.5186710251664133,216.0,180.0,78.58536585365843,0.0,0,0.0,,,,,,
157.52464635999377,2.531479522510993,217.0,180.0,77.56097560975599,0.0,0,0.0,,,,,,
158.52464635999377,2.5444583132675618,218.0,180.0,76.53658536585354,0.0,0,0.0,,,,,,
159.52464635999377,2.5576119866714757,219.0,180.0,75.5121951219511,0.0,0,0.0,,,,,,
160.52464635999377,2.570945320004809,220.0,180.0,74.48780487804865,0.0,0,0.0,,,,,,
161.52464635999377,2.584463289012392,221.0,180.0,73.4634146341462,0.0,0,0.0,,,,,,
162.52464635999377,2.598171079049169,222.0,180.0,72.43902439024376,0.0,0,0.0,,,,,,
163.52464635999377,2.612074097021363,223.0,180.0,71.41463414634131,0.0,0,0.0,,,,,,
164.52464635999377,2.626177984190266,224.0,180.0,70.39024390243887,0.0,0,0.0,,,,,,
165.52464635999377,2.640488629914524,225.0,180.0,69.36585365853642,0.0,0,0.0,,,,,,
166.52464635999377,2.655012186414701,226.0,180.0,68.34146341463398,0.0,0,0.0,,,,,,
167.52464635999377,2.669755084652745,227.0,180.0,67.31707317073153,0.0,0,0.0,,,,,,
168.52464635999377,2.6847240514289408,228.0,180.0,66.29268292682909,0.0,0,0.0,,,,,,
169.52464635999377,2.699926127810105,229.0,180.0,65.26829268292664,0.0,0,0.0,,,,,,
170.52464635999377,2.7153686890153783,230.0,180.0,64.2439024390242,0.0,0,0.0,,,,,,
171.52464635999377,2.7310594659001852,231.0,180.0,63.21951219512176,0.0,0,0.0,,,,,,
172.52464635999377,2.747006568195012,232.0,180.0,62.19512195121932,0.0,0,0.0,,,,,,
173.52464635999377,2.7632185096738575,233.0,180.0,61.17073170731688,0.0,0,0.0,,,,,,
174.52464635999377,2.7797042354478827,234.0,180.0,60.146341463414444,0.0,0,0.0,,,,,,
175.52464635999377,2.796473151603302,235.0,180.0,59.121951219512006,0.0,0,0.0,,,,,,
176.52464635999377,2.813535157429353,236.0,180.0,58.09756097560957,0.0,0,0.0,,,,,,
177.52464635999377,2.830900680512792,237.0,180.0,57.07317073170713,0.0,0,0.0,,,,,,
178.52464635999377,2.8485807150104203,238.0,180.0,56.04878048780469,0.0,0,0.0,,,,,,
179.52464635999377,2.8665868634513516,239.0,180.0,55.02439024390225,0.0,0,0.0,,,,,,
180.52464635999377,2.8849313824670118,240.0,180.0,53.999999999999815,0.0,0,0.0,,,,,,
181.52464635999377,2.903627232900208,241.0,180.0,52.97560975609738,0.0,0,0.0,,,,,,
182.52464635999377,2.9226881348062985,242.0,180.0,51.95121951219494,0.0,0,0.0,,,,,,
183.52464635999377,2.942128627931002,243.0,180.0,50.9268292682925,0.0,0,0.0,,,,,,
184.52464635999377,2.9619641383325503,244.0,180.0,49.90243902439006,0.0,0,0.0,,,,,,
185.52464635999377,2.982211051912797,245.0,180.0,48.878048780487624,0.0,0,0.0,,,,,,
186.52464635999377,3.0028867957352885,246.0,180.0,47.853658536585186,0.0,0,0.0,,,,,,
187.52464635999377,3.0240099281412647,247.0,180.0,46.82926829268275,0.0,0,0.0,,,,,,
188.52464635999377,3.0456002388311014,248.0,180.0,45.80487804878031,0.0,0,0.0,,,,,,
189.52464635999377,3.0676788602635194,249.0,180.0,44.78048780487787,0.0,0,-0.0,,,,,,
190.52464635999377,3.0902683919439604,250.0,180.0,43.756097560975434,0.0,0,-0.0,,,,,,
191.52464635999377,3.11339303943409,251.0,180.0,42.731707317072996,0.0,0,-0.0,,,,,,
192.52464635999377,3.13707877022554,252.0,180.0,41.70731707317056,0.0,0,-0.0,,,,,,
193.52464635999377,3.1613534889940422,253.0,180.0,40.68292682926812,0.0,0,-0.0,,,,,,
194.52464635999377,3.186247235199264,254.0,180.0,39.65853658536568,0.0,0,-0.0,,,,,,
195.52464635999377,3.211792406538828,255.0,180.0,38.63414634146324,0.0,0,-0.0,,,,,,
196.52464635999377,3.2380240124249444,256.0,180.0,37.609756097560805,0.0,0,-0.0,,,,,,
197.52464635999377,3.2649799624578177,257.0,180.0,36.58536585365837,0.0,0,-0.0,,,,,,
198.52464635999377,3.2927013958587645,258.0,180.0,35.56097560975593,0.0,0,-0.0,,,,,,
199.52464635999377,3.32123305904596,259.0,180.0,34.53658536585349,0.0,0,-0.0,,,,,,
200.52464635999377,3.3506237400495444,260.0,180.0,33.51219512195105,0.0,0,-0.0,,,,,,
201.52464635999377,3.3809267703525747,261.0,180.0,32.487804878048614,0.0,0,-0.0,,,,,,
202.52464635999377,3.4122006071184026,262.0,180.0,31.463414634146176,0.0,0,-0.0,,,,,,
203.52464635999377,3.444509511767733,263.0,180.0,30.439024390243738,0.0,0,-0.0,,,,,,
204.52464635999377,3.4779243446935686,264.0,180.0,29.4146341463413,0.0,0,-0.0,,,,,,
205.52464635999377,3.5125235008117124,265.0,180.0,28.39024390243886,0.0,0,-0.0,,,,,,
206.52464635999377,3.5483940169971895,266.0,180.0,27.365853658536423,0.0,0,-0.0,,,,,,
207.52464635999377,3.5856328907483253,267.0,180.0,26.341463414633985,0.0,0,-0.0,,,,,,
208.52464635999377,3.624348660342282,268.0,180.0,25.317073170731547,0.0,0,-0.0,,,,,,
209.52464635999377,3.6646633112764024,269.0,180.0,24.29268292682911,0.0,0,0.0,,,,,,
210.52464635999377,3.7067145933276846,270.0,180.0,23.26829268292667,0.0,0,0.0,,,,,,
211.52464635999377,3.7506588591369026,271.0,180.0,22.243902439024232,0.0,0,0.0,,,,,,
212.52464635999377,3.796674571819282,272.0,180.0,21.219512195121794,0.0,0,0.0,,,,,,
213.52464635999377,3.844966680182062,273.0,180.0,20.195121951219356,0.0,0,0.0,,,,,,
214.52464635999377,3.895772132474504,274.0,180.0,19.170731707316918,0.0,0,0.0,,,,,,
215.52464635999377,3.949366903716334,275.0,180.0,18.14634146341448,0.0,0,0.0,,,,,,
216.52464635999377,4.006075064158935,276.0,180.0,17.12195121951204,0.0,0,0.0,,,,,,
217.52464635999377,4.066280644188304,277.0,180.0,16.097560975609603,0.0,0,0.0,,,,,,
218.52464635999377,4.130443398491904,278.0,180.0,15.073170731707165,0.0,0,0.0,,,,,,
219.52464635999377,4.199120115409828,279.0,180.0,14.048780487804727,0.0,0,0.0,,,,,,
220.52464635999377,4.2729939892837026,280.0,180.0,13.024390243902289,0.0,0,0.0,,,,,,
221.52464635999377,4.352916016574151,281.0,180.0,12.0,0.0,0,0.0,,,,,,
222.52464635999377,4.436249349907484,282.0,180.0,12.0,0.0,0,0.0,,,,,,
