Distance (in),Time (s),X (in),Y (in),Velocity (in/s),Orientation (deg),Touch,Rotational Velocity (deg/s),Way X (in),Way Y (in),Way Velocity (in/s),Way Orientation (deg),Way Turn Radius (in),Touch this Point
0.0,0.0,74.0,199.0,12.0,0.0,0,0.0,74.0,199.0,12.0,0.0,3.0,0.0
1.0000000000000038,0.07909591357879814,74.94498607344026,198.67288943611683,13.285756362211266,0.0,0,0.0,100.0,190.0,48.0,0.0,20.0,0
2.0000000000000075,0.1508904600499606,75.88997214688052,198.34577887223367,14.571512724422533,0.0,0,0.0,200.0,190.0,96.0,0.0,3.0,0
3.0000000000000115,0.2166177051437259,76.83495822032079,198.0186683083505,15.8572690866338,0.0,0,0.0,282.0,190.0,12.0,0.0,3.0,0
4.000000000000015,0.2772232248262788,77.77994429376105,197.69155774446733,17.143025448845066,0.0,0,0.0,,,,,,
5.000000000000019,0.3334475258685968,78.72493036720131,197.36444718058416,18.428781811056332,0.0,0,0.0,,,,,,
6.000000000000022,0.3858813465434086,79.66991644064157,197.037336616701,19.7145381732676,0.0,0,-0.0,,,,,,
7.000000000000026,0.435003493607281,80.61490251408183,196.71022605281783,21.000294535478865,0.0,0,-0.0,,,,,,
8.00000000000003,0.48120744037122914,81.5598885875221,196.38311548893466,22.28605089769013,0.0,0,-0.0,,,,,,
9.000000000000034,0.5248204672406255,82.50487466096236,196.0560049250515,23.571807259901398,0.0,0,-0.0,,,,,,
10.000000000000037,0.566117720613429,83.44986073440262,195.72889436116833,24.857563622112664,0.0,0,-0.0,,,,,,
11.00000000000004,0.605332727463773,84.39484680784288,195.40178379728516,26.14331998432393,0.0,0,-0.0,,,,,,
12.000000000000044,0.6426653863884952,85.33983288128314,195.074673233402,27.429076346535197,0.0,0,-0.0,,,,,,
13.000000000000048,0.6782881286174114,86.2848189547234,194.74756266951883,28.714832708746464,0.0,0,-0.0,,,,,,
14.000000000000052,0.7123507298792034,87.22980502816367,194.42045210563566,30.00058907095773,0.0,0,0.0,,,,,,
15.000000000000055,0.7449841127720178,88.17479110160393,194.0933415417525,31.286345433168997,0.0,0,0.0,,,,,,
16.00000000000006,0.7763033835466737,89.11977717504419,193.76623097786933,32.57210179538026,0.0,0,0.0,,,,,,
17.000000000000064,0.8064102811184302,90.06476324848445,193.43912041398616,33.85785815759153,0.0,0,0.0,,,,,,
18.000000000000068,0.835395169735963,91.00974932192472,193.112009850103,35.143614519802796,0.0,0,0.0,,,,,,
19.00000000000007,0.8633386736819257,91.95473539536498,192.78489928621983,36.42937088201406,0.0,0,0.0,,,,,,
20.000000000000075,0.890313028496423,92.89972146880524,192.45778872233666,37.71512724422533,0.0,0,0.0,,,,,,
21.000000000000078,0.9163832057361295,93.8447075422455,192.1306781584535,39.000883606436595,0.0,0,0.0,,,,,,
22.00000000000008,0.9416078553382328,94.78969361568576,191.80356759457032,40.28663996864786,0.0,0,0.0,,,,,,
23.000000000000085,0.9660400999676757,95.73467968912603,191.47645703068716,41.57239633085913,0.0,0,0.0,,,,,,
24.00000000000009,0.9897282083966895,96.67966576256629,191.149346466804,42.858152693070394,0.0,0,0.0,,,,,,
24.999396187620782,1.0127024939629128,97.62982778858164,190.83953222544446,44.14313269967338,0.0,0,0.0,,,,,,
25.99929202420927,1.0350286023163524,98.59461780907063,190.5769072068498,45.42875513311558,0.0,0,0.0,,,,,,
26.999187860797754,1.0567317028577132,99.57132787351952,190.36282980488681,46.71437756655777,0.0,0,0.0,,,,,,
27.99908369738626,1.0777737134201641,100.557516715428,190.19783510157106,48.323673442959986,0.0,0,0.0,,,,,,
28.998979533974747,1.0981264510769388,101.55071937628846,190.08233549773325,49.93296931936217,0.0,0,0.0,,,,,,
29.998979533974747,1.117835660968026,102.55071937628846,190.08233549773325,51.542432842975686,0.0,0,0.0,,,,,,
30.998979533974747,1.1369388923951709,103.55071937628846,190.08233549773325,53.1518963665892,0.0,0,0.0,,,,,,
31.998979533974747,1.1554722966253312,104.55071937628846,190.08233549773325,54.76135989020271,0.0,0,0.0,,,,,,
32.99897953397475,1.173468883577364,105.55071937628846,190.08233549773325,56.370823413816225,0.0,0,0.0,,,,,,
33.99897953397475,1.190958875531589,106.55071937628846,190.08233549773325,57.98028693742974,0.0,0,0.0,,,,,,
34.99897953397475,1.2079700124186303,107.55071937628846,190.08233549773325,59.58975046104325,0.0,0,0.0,,,,,,
35.99897953397475,1.2245278164297666,108.55071937628846,190.08233549773325,61.199213984656765,0.0,0,0.0,,,,,,
36.99897953397475,1.2406558222842494,109.55071937628846,190.08233549773325,62.80867750827028,0.0,0,0.0,,,,,,
37.99897953397475,1.2563757783670055,110.55071937628846,190.08233549773325,64.41814103188379,0.0,0,0.0,,,,,,
38.99897953397475,1.2717078230495995,111.55071937628846,190.08233549773325,66.0276045554973,0.0,0,0.0,,,,,,
39.99897953397475,1.2866706397802947,112.55071937628846,190.08233549773325,67.63706807911082,0.0,0,0.0,,,,,,
40.99897953397475,1.3012815939387818,113.55071937628846,190.08233549773325,69.24653160272433,0.0,0,0.0,,,,,,
41.99897953397475,1.3155568539693716,114.55071937628846,190.08233549773325,70.85599512633785,0.0,0,0.0,,,,,,
42.99897953397475,1.3295114989112364,115.55071937628846,190.08233549773325,72.46545864995136,0.0,0,0.0,,,,,,
43.99897953397475,1.3431596141185298,116.55071937628846,190.08233549773325,74.07492217356487,0.0,0,0.0,,,,,,
44.99897953397475,1.3565143766934624,117.55071937628846,190.08233549773325,75.68438569717839,0.0,0,0.0,,,,,,
45.99897953397475,1.369588131931078,118.55071937628846,190.08233549773325,77.2938492207919,0.0,0,0.0,,,,,,
46.99897953397475,1.382392461887122,119.55071937628846,190.08233549773325,78.90331274440541,0.0,0,0.0,,,,,,
47.99897953397475,1.3949382470233018,120.55071937628846,190.08233549773325,80.51277626801892,0.0,0,0.0,,,,,,
48.99897953397475,1.4072357217520308,121.55071937628846,190.08233549773325,82.12223979163244,0.0,0,0.0,,,,,,
49.99897953397475,1.4192945245910515,122.55071937628846,190.08233549773325,83.73170331524595,0.0,0,0.0,,,,,,
50.99897953397475,1.4311237435436668,123.55071937628846,190.08233549773325,85.34116683885946,0.0,0,0.0,,,,,,
51.99897953397475,1.4427319572397772,124.55071937628846,190.08233549773325,86.95063036247298,0.0,0,0.0,,,,,,
52.99897953397475,1.4541272723042151,125.55071937628846,190.08233549773325,88.56009388608649,0.0,0,0.0,,,,,,
53.99897953397475,1.4653173573600524,126.55071937628846,190.08233549773325,90.1695574097,0.0,0,0.0,,,,,,
54.99897953397475,1.476309474024078,127.55071937628846,190.08233549773325,91.77902093331352,0.0,0,-0.0,,,,,,
55.99897953397473,1.4871105052081672,128.55071937628844,190.08233549773325,93.388484456927,0.0,0,-0.0,,,,,,
56.99897953397473,1.4977269810027491,129.55071937628844,190.08233549773325,94.99794798054052,0.0,0,-0.0,,,,,,
57.99897953397473,1.5081982976904225,130.55071937628844,190.08233549773325,96.0,0.0,0,-0.0,,,,,,
58.99897953397473,1.5186149643570892,131.55071937628844,190.08233549773325,96.0,0.0,0,-0.0,,,,,,
59.99897953397473,1.529031631023756,132.55071937628844,190.08233549773325,96.0,0.0,0,-0.0,,,,,,
60.99897953397473,1.5394482976904227,133.55071937628844,190.08233549773325,96.0,0.0,0,-0.0,,,,,,
61.99897953397473,1.5498649643570894,134.55071937628844,190.08233549773325,96.0,0.0,0,-0.0,,,,,,
62.99897953397473,1.5602816310237562,135.55071937628844,190.08233549773325,96.0,0.0,0,-0.0,,,,,,
63.99897953397473,1.570698297690423,136.55071937628844,190.08233549773325,96.0,0.0,0,-0.0,,,,,,
64.99897953397473,1.5811149643570896,137.55071937628844,190.08233549773325,96.0,0.0,0,-0.0,,,,,,
65.99897953397473,1.5915316310237564,138.55071937628844,190.08233549773325,96.0,0.0,0,-0.0,,,,,,
66.99897953397473,1.6019482976904231,139.55071937628844,190.08233549773325,96.0,0.0,0,-0.0,,,,,,
67.99897953397473,1.6123649643570899,140.55071937628844,190.08233549773325,96.0,0.0,0,-0.0,,,,,,
68.99897953397473,1.6227816310237566,141.55071937628844,190.08233549773325,96.0,0.0,0,-0.0,,,,,,
69.99897953397473,1.6331982976904234,142.55071937628844,190.08233549773325,96.0,0.0,0,-0.0,,,,,,
70.99897953397473,1.64361496435709,143.55071937628844,190.08233549773325,96.0,0.0,0,-0.0,,,,,,
71.99897953397473,1.6540316310237568,144.55071937628844,190.08233549773325,96.0,0.0,0,-0.0,,,,,,
72.99897953397473,1.6644482976904236,145.55071937628844,190.08233549773325,96.0,0.0,0,-0.0,,,,,,
73.99897953397473,1.6748649643570903,146.55071937628844,190.08233549773325,96.0,0.0,0,-0.0,,,,,,
74.99897953397473,1.685281631023757,147.55071937628844,190.08233549773325,96.0,0.0,0,-0.0,,,,,,
75.99897953397473,1.6956982976904238,148.55071937628844,190.08233549773325,96.0,0.0,0,-0.0,,,,,,
76.99897953397473,1.7061149643570905,149.55071937628844,190.08233549773325,96.0,0.0,0,-0.0,,,,,,
77.99897953397473,1.7165316310237573,150.55071937628844,190.08233549773325,96.0,0.0,0,-0.0,,,,,,
78.99897953397473,1.726948297690424,151.55071937628844,190.08233549773325,96.0,0.0,0,-0.0,,,,,,
79.99897953397473,1.7373649643570908,152.55071937628844,190.08233549773325,96.0,0.0,0,-0.0,,,,,,
80.99897953397473,1.7477816310237575,153.55071937628844,190.08233549773325,96.0,0.0,0,-0.0,,,,,,
81.99897953397473,1.7581982976904242,154.55071937628844,190.08233549773325,96.0,0.0,0,-0.0,,,,,,
82.99897953397473,1.768614964357091,155.55071937628844,190.08233549773325,96.0,0.0,0,-0.0,,,,,,
83.99897953397473,1.7790316310237577,156.55071937628844,190.08233549773325,96.0,0.0,0,-0.0,,,,,,
84.99897953397473,1.7894482976904245,157.55071937628844,190.08233549773325,96.0,0.0,0,-0.0,,,,,,
85.99897953397473,1.7998649643570912,158.55071937628844,190.08233549773325,96.0,0.0,0,-0.0,,,,,,
86.99897953397473,1.810281631023758,159.55071937628844,190.08233549773325,96.0,0.0,0,-0.0,,,,,,
87.99897953397473,1.8206982976904247,160.55071937628844,190.08233549773325,96.0,0.0,0,0.0,,,,,,
88.99897953397473,1.8311149643570914,161.55071937628844,190.08233549773325,96.0,0.0,0,0.0,,,,,,
89.99897953397473,1.8415316310237582,162.55071937628844,190.08233549773325,96.0,0.0,0,0.0,,,,,,
90.99897953397473,1.851948297690425,163.55071937628844,190.08233549773325,96.0,0.0,0,0.0,,,,,,
91.99897953397473,1.8623649643570916,164.55071937628844,190.08233549773325,96.0,0.0,0,0.0,,,,,,
92.99897953397473,1.8727816310237584,165.55071937628844,190.08233549773325,96.0,0.0,0,0.0,,,,,,
93.99897953397473,1.8831982976904251,166.55071937628844,190.08233549773325,96.0,0.0,0,0.0,,,,,,
94.99897953397473,1.8936149643570919,167.55071937628844,190.08233549773325,96.0,0.0,0,0.0,,,,,,
95.99897953397473,1.9040316310237586,168.55071937628844,190.08233549773325,96.0,0.0,0,0.0,,,,,,
96.99897953397473,1.9144482976904253,169.55071937628844,190.08233549773325,96.0,0.0,0,0.0,,,,,,
97.99897953397473,1.924864964357092,170.55071937628844,190.08233549773325,96.0,0.0,0,0.0,,,,,,
98.99897953397473,1.9352816310237588,171.55071937628844,190.08233549773325,96.0,0.0,0,0.0,,,,,,
99.99897953397473,1.9456982976904256,172.55071937628844,190.08233549773325,96.0,0.0,0,0.0,,,,,,
100.99897953397473,1.9561149643570923,173.55071937628844,190.08233549773325,96.0,0.0,0,0.0,,,,,,
101.99897953397473,1.966531631023759,174.55071937628844,190.08233549773325,96.0,0.0,0,0.0,,,,,,
102.99897953397473,1.9769482976904258,175.55071937628844,190.08233549773325,96.0,0.0,0,0.0,,,,,,
103.99897953397473,1.9873649643570925,176.55071937628844,190.08233549773325,96.0,0.0,0,0.0,,,,,,
104.99897953397473,1.9977816310237593,177.55071937628844,190.08233549773325,96.0,0.0,0,0.0,,,,,,
105.99897953397473,2.008198297690426,178.55071937628844,190.08233549773325,96.0,0.0,0,0.0,,,,,,
106.99897953397473,2.0186149643570923,179.55071937628844,190.08233549773325,96.0,0.0,0,0.0,,,,,,
107.99897953397473,2.029031631023759,180.55071937628844,190.08233549773325,96.0,0.0,0,0.0,,,,,,
108.99897953397473,2.0394482976904253,181.55071937628844,190.08233549773325,96.0,0.0,0,0.0,,,,,,
109.99897953397473,2.049864964357092,182.55071937628844,190.08233549773325,96.0,0.0,0,0.0,,,,,,
110.99897953397473,2.0602816310237584,183.55071937628844,190.08233549773325,96.0,0.0,0,0.0,,,,,,
111.99897953397473,2.070698297690425,184.55071937628844,190.08233549773325,96.0,0.0,0,0.0,,,,,,
112.99897953397473,2.0811149643570914,185.55071937628844,190.08233549773325,96.0,0.0,0,0.0,,,,,,
113.99897953397473,2.091531631023758,186.55071937628844,190.08233549773325,96.0,0.0,0,0.0,,,,,,
114.99897953397473,2.1019482976904245,187.55071937628844,190.08233549773325,96.0,0.0,0,0.0,,,,,,
115.99897953397473,2.112364964357091,188.55071937628844,190.08233549773325,96.0,0.0,0,0.0,,,,,,
116.99897953397473,2.1227816310237575,189.55071937628844,190.08233549773325,96.0,0.0,0,0.0,,,,,,
117.99897953397473,2.133198297690424,190.55071937628844,190.08233549773325,96.0,0.0,0,0.0,,,,,,
118.99897953397473,2.1436149643570905,191.55071937628844,190.08233549773325,96.0,0.0,0,0.0,,,,,,
119.99897953397473,2.154031631023757,192.55071937628844,190.08233549773325,96.0,0.0,0,0.0,,,,,,
120.99897953397473,2.1644482976904236,193.55071937628844,190.08233549773325,96.0,0.0,0,0.0,,,,,,
121.99897953397473,2.17486496435709,194.55071937628844,190.08233549773325,96.0,0.0,0,0.0,,,,,,
122.99897953397473,2.1852816310237566,195.55071937628844,190.08233549773325,96.0,0.0,0,0.0,,,,,,
123.99897953397473,2.195698297690423,196.55071937628844,190.08233549773325,96.0,0.0,0,0.0,,,,,,
124.99897953397473,2.2061149643570896,197.55071937628844,190.08233549773325,96.0,0.0,0,0.0,,,,,,
125.99897953397473,2.216531631023756,198.55071937628844,190.08233549773325,96.0,0.0,0,0.0,,,,,,
126.99897953397473,2.2269482976904227,199.55071937628844,190.08233549773325,96.0,0.0,0,0.0,,,,,,
127.45574228752369,2.231717866461809,200.0,190.0,95.53209669148643,0.0,0,0.0,,,,,,
128.4557422875237,2.2422419775530864,201.0,190.0,94.50770644758398,0.0,0,0.0,,,,,,
129.4557422875237,2.252880783448143,202.0,190.0,93.48331620368154,0.0,0,0.0,,,,,,
130.4557422875237,2.2636368116466294,203.0,190.0,92.4589259597791,0.0,0,0.0,,,,,,
131.4557422875237,2.2745126741257833,204.0,190.0,91.43453571587665,0.0,0,0.0,,,,,,
132.4557422875237,2.285511071147547,205.0,190.0,90.4101454719742,0.0,0,0.0,,,,,,
133.4557422875237,2.2966347952825963,206.0,190.0,89.38575522807176,0.0,0,0.0,,,,,,
134.4557422875237,2.3078867356662824,207.0,190.0,88.36136498416931,0.0,0,0.0,,,,,,
135.4557422875237,2.319269882502711,208.0,190.0,87.33697474026687,0.0,0,0.0,,,,,,
136.4557422875237,2.3307873318345265,209.0,190.0,86.31258449636442,0.0,0,0.0,,,,,,
137.4557422875237,2.3424422905974316,210.0,190.0,85.28819425246198,0.0,0,0.0,,,,,,
138.4557422875237,2.3542380819800908,211.0,190.0,84.26380400855953,0.0,0,0.0,,,,,,
139.4557422875237,2.366178151111824,212.0,190.0,83.23941376465709,0.0,0,0.0,,,,,,
140.4557422875237,2.3782660711024493,213.0,190.0,82.21502352075464,0.0,0,0.0,,,,,,
141.4557422875237,2.390505549460761,214.0,190.0,81.1906332768522,0.0,0,0.0,,,,,,
142.4557422875237,2.4029004349204923,215.0,190.0,80.16624303294975,0.0,0,0.0,,,,,,
143.4557422875237,2.4154547247052043,216.0,190.0,79.1418527890473,0.0,0,0.0,,,,,,
144.4557422875237,2.428172572266411,217.0,190.0,78.11746254514486,0.0,0,0.0,,,,,,
145.4557422875237,2.4410582955324216,218.0,190.0,77.09307230124242,0.0,0,0.0,,,,,,
146.4557422875237,2.454116385708887,219.0,190.0,76.06868205733997,0.0,0,0.0,,,,,,
147.4557422875237,2.467351516675936,220.0,190.0,75.04429181343752,0.0,0,0.0,,,,,,
148.4557422875237,2.480768555031094,221.0,190.0,74.01990156953508,0.0,0,0.0,,,,,,
149.4557422875237,2.4943725708319824,222.0,190.0,72.99551132563263,0.0,0,0.0,,,,,,
150.4557422875237,2.5081688490981415,223.0,190.0,71.97112108173019,0.0,0,0.0,,,,,,
151.4557422875237,2.5221629021372656,224.0,190.0,70.94673083782774,0.0,0,0.0,,,,,,
152.4557422875237,2.536360482767794,225.0,190.0,69.9223405939253,0.0,0,0.0,,,,,,
153.4557422875237,2.550767598517231,226.0,190.0,68.89795035002285,0.0,0,0.0,,,,,,
154.4557422875237,2.5653905268838906,227.0,190.0,67.87356010612041,0.0,0,0.0,,,,,,
155.4557422875237,2.5802358317590963,228.0,190.0,66.84916986221796,0.0,0,0.0,,,,,,
156.4557422875237,2.5953103811173595,229.0,190.0,65.82477961831552,0.0,0,0.0,,,,,,
157.4557422875237,2.610621366093856,230.0,190.0,64.80038937441307,0.0,0,0.0,,,,,,
158.4557422875237,2.6261763215818417,231.0,190.0,63.775999130510634,0.0,0,0.0,,,,,,
159.4557422875237,2.6419831484976672,232.0,190.0,62.751608886608196,0.0,0,0.0,,,,,,
160.4557422875237,2.658050137878082,233.0,190.0,61.72721864270576,0.0,0,0.0,,,,,,
161.4557422875237,2.6743859969937933,234.0,190.0,60.70282839880332,0.0,0,0.0,,,,,,
162.4557422875237,2.6909998776851696,235.0,190.0,59.67843815490088,0.0,0,0.0,,,,,,
163.4557422875237,2.7079014071509344,236.0,190.0,58.65404791099844,0.0,0,0.0,,,,,,
164.4557422875237,2.7251007214491603,237.0,190.0,57.629657667096005,0.0,0,0.0,,,,,,
165.4557422875237,2.74260850200243,238.0,190.0,56.60526742319357,0.0,0,0.0,,,,,,
166.4557422875237,2.760436015436346,239.0,190.0,55.58087717929113,0.0,0,0.0,,,,,,
167.4557422875237,2.778595157123426,240.0,190.0,54.55648693538869,0.0,0,0.0,,,,,,
168.4557422875237,2.7970984988537984,241.0,190.0,53.53209669148625,0.0,0,0.0,,,,,,
169.4557422875237,2.8159593411110877,242.0,190.0,52.507706447583814,0.0,0,0.0,,,,,,
170.4557422875237,2.8351917704978726,243.0,190.0,51.483316203681376,0.0,0,0.0,,,,,,
171.4557422875237,2.854810722931674,244.0,190.0,50.45892595977894,0.0,0,0.0,,,,,,
172.4557422875237,2.874832053321583,245.0,190.0,49.4345357158765,0.0,0,0.0,,,,,,
173.4557422875237,2.89527261253972,246.0,190.0,48.41014547197406,0.0,0,0.0,,,,,,
174.4557422875237,2.9161503326236136,247.0,190.0,47.38575522807162,0.0,0,0.0,,,,,,
175.4557422875237,2.9374843212887805,248.0,190.0,46.361364984169185,0.0,0,-0.0,,,,,,
176.4557422875237,2.9592949669995994,249.0,190.0,45.33697474026675,0.0,0,-0.0,,,,,,
177.4557422875237,2.981604056046217,250.0,190.0,44.31258449636431,0.0,0,-0.0,,,,,,
178.4557422875237,3.0044349033122497,251.0,190.0,43.28819425246187,0.0,0,-0.0,,,,,,
179.4557422875237,3.0278124987004715,252.0,190.0,42.26380400855943,0.0,0,-0.0,,,,,,
180.4557422875237,3.0517636715215204,253.0,190.0,41.239413764656994,0.0,0,-0.0,,,,,,
181.4557422875237,3.076317275556524,254.0,190.0,40.215023520754556,0.0,0,-0.0,,,,,,
182.4557422875237,3.1015043979941317,255.0,190.0,39.19063327685212,0.0,0,-0.0,,,,,,
183.4557422875237,3.12735859603582,256.0,190.0,38.16624303294968,0.0,0,-0.0,,,,,,
184.4557422875237,3.153916165685799,257.0,190.0,37.14185278904724,0.0,0,-0.0,,,,,,
185.4557422875237,3.181216448126011,258.0,190.0,36.117462545144804,0.0,0,-0.0,,,,,,
186.4557422875237,3.209302180164316,259.0,190.0,35.093072301242366,0.0,0,-0.0,,,,,,
187.4557422875237,3.2382198965893596,260.0,190.0,34.06868205733993,0.0,0,-0.0,,,,,,
188.4557422875237,3.2680203939395573,261.0,190.0,33.04429181343749,0.0,0,-0.0,,,,,,
189.4557422875237,3.2987592672892636,262.0,190.0,32.01990156953505,0.0,0,-0.0,,,,,,
190.4557422875237,3.330497534295896,263.0,190.0,30.995511325632613,0.0,0,-0.0,,,,,,
191.4557422875237,3.3633023641024127,264.0,190.0,29.971121081730175,0.0,0,-0.0,,,,,,
192.4557422875237,3.39724793297228,265.0,190.0,28.946730837827737,0.0,0,-0.0,,,,,,
193.4557422875237,3.432416434051116,266.0,190.0,27.9223405939253,0.0,0,-0.0,,,,,,
194.4557422875237,3.4688992758157635,267.0,190.0,26.89795035002286,0.0,0,-0.0,,,,,,
195.4557422875237,3.506798513163956,268.0,190.0,25.873560106120422,0.0,0,-0.0,,,,,,
196.4557422875237,3.546228567525155,269.0,190.0,24.849169862217984,0.0,0,0.0,,,,,,
197.4557422875237,3.587318308985315,270.0,190.0,23.824779618315546,0.0,0,0.0,,,,,,
198.4557422875237,3.630213595870214,271.0,190.0,22.800389374413108,0.0,0,0.0,,,,,,
199.4557422875237,3.6750803979391855,272.0,190.0,21.77599913051067,0.0,0,0.0,,,,,,
200.4557422875237,3.7221086718829004,273.0,190.0,20.75160888660823,0.0,0,0.0,,,,,,
201.4557422875237,3.771517217586247,274.0,190.0,19.727218642705793,0.0,0,0.0,,,,,,
202.4557422875237,3.8235598288752666,275.0,190.0,18.702828398803355,0.0,0,0.0,,,,,,
203.4557422875237,3.878533176134843,276.0,190.0,17.678438154900917,0.0,0,0.0,,,,,,
204.4557422875237,3.936787040890256,277.0,190.0,16.65404791099848,0.0,0,0.0,,,,,,
205.4557422875237,3.998737797911069,278.0,190.0,15.62965766709604,0.0,0,0.0,,,,,,
206.4557422875237,4.064886465189968,279.0,190.0,14.605267423193602,0.0,0,0.0,,,,,,
207.4557422875237,4.135843313961108,280.0,190.0,13.580877179291164,0.0,0,0.0,,,,,,
