Distance (in),Time (s),X (in),Y (in),Velocity (in/s),Orientation (deg),Touch,Rotational Velocity (deg/s),Way X (in),Way Y (in),Way Velocity (in/s),Way Orientation (deg),Way Turn Radius (in),Touch this Point
0.0,0.0,74.0,18.0,12.0,0.0,0,0.0,74.0,18.0,12.0,0.0,3.0,0.0
1.0000000000000018,0.07623825395708321,74.96351790962994,18.267643863786095,14.23354938225452,0.0,0,0.0,110.0,28.0,192.0,0.0,3.0,0.0
2.0000000000000036,0.14138345839834,75.92703581925988,18.53528772757219,16.46709876450904,0.0,0,0.0,200.0,28.0,96.0,0.0,3.0,0.0
3.0000000000000053,0.1982537493796177,76.89055372888983,18.802931591358284,18.70064814676356,0.0,0,0.0,248.0,28.0,0.0,0.0,3.0,0
4.000000000000007,0.24871439747599916,77.85407163851977,19.07057545514438,20.93419752901808,0.0,0,0.0,,,,,,
5.000000000000009,0.2940638718672653,78.81758954814971,19.338219318930474,23.167746911272598,0.0,0,0.0,,,,,,
6.000000000000011,0.3352423647514397,79.78110745777965,19.60586318271657,25.401296293527118,0.0,0,0.0,,,,,,
7.000000000000012,0.37295249836480426,80.7446253674096,19.873507046502663,27.634845675781637,0.0,0,-0.0,,,,,,
8.000000000000014,0.4077331468026548,81.70814327703954,20.141150910288758,29.868395058036157,0.0,0,-0.0,,,,,,
9.000000000000016,0.4400066508078088,82.67166118666948,20.408794774074853,32.10194444029068,0.0,0,-0.0,,,,,,
10.000000000000018,0.4701101594965051,83.63517909629942,20.676438637860947,34.3354938225452,0.0,0,-0.0,,,,,,
11.00000000000002,0.4983170991910508,84.59869700592937,20.944082501647042,36.569043204799726,0.0,0,-0.0,,,,,,
12.000000000000021,0.5248522802175473,85.56221491555931,21.211726365433137,38.80259258705425,0.0,0,-0.0,,,,,,
13.000000000000023,0.5499027774619404,86.52573282518925,21.47937022921923,41.03614196930877,0.0,0,-0.0,,,,,,
14.000000000000025,0.573625928295263,87.4892507348192,21.747014093005326,43.269691351563296,0.0,0,-0.0,,,,,,
15.000000000000027,0.5961553182006952,88.45276864444914,22.01465795679142,45.50324073381782,0.0,0,-0.0,,,,,,
16.00000000000003,0.617605332553649,89.41628655407908,22.282301820577516,47.73679011607234,0.0,0,0.0,,,,,,
17.00000000000003,0.6380746678815109,90.37980446370902,22.54994568436361,49.97033949832686,0.0,0,0.0,,,,,,
18.00000000000003,0.6576490755548735,91.34332237333896,22.817589548149705,52.203888880581374,0.0,0,0.0,,,,,,
19.00000000000003,0.6764035308263302,92.3068402829689,23.0852334119358,54.43743826283589,0.0,0,0.0,,,,,,
20.00000000000003,0.694403965839759,93.27035819259885,23.352877275721895,56.670987645090406,0.0,0,0.0,,,,,,
21.00000000000003,0.7117086677277099,94.23387610222879,23.62052113950799,58.90453702734492,0.0,0,0.0,,,,,,
22.00000000000003,0.7283694165745606,95.19739401185873,23.888165003294084,61.13808640959944,0.0,0,0.0,,,,,,
23.00000000000003,0.7444324192432522,96.16091192148868,24.15580886708018,63.371635791853954,0.0,0,0.0,,,,,,
24.00000000000003,0.7599390814870658,97.12442983111862,24.423452730866273,65.60518517410847,0.0,0,0.0,,,,,,
25.00000000000003,0.7749266508273518,98.08794774074856,24.691096594652368,67.838734556363,0.0,0,0.0,,,,,,
26.00000000000003,0.7894287553134613,99.0514656503785,24.958740458438463,70.07228393861752,0.0,0,0.0,,,,,,
27.00000000000003,0.8034758577649913,100.01498356000845,25.226384322224558,72.30583332087204,0.0,0,0.0,,,,,,
28.00000000000003,0.8170956409227426,100.97850146963839,25.494028186010652,74.53938270312656,0.0,0,0.0,,,,,,
29.00000000000003,0.8303133357468251,101.94201937926833,25.761672049796747,76.77293208538109,0.0,0,0.0,,,,,,
30.00000000000003,0.8431520026437147,102.90553728889827,26.029315913582842,79.00648146763561,0.0,0,0.0,,,,,,
31.00000000000003,0.8556327734952951,103.86905519852822,26.296959777368937,81.24003084989013,0.0,0,0.0,,,,,,
32.00000000000003,0.8677750608682792,104.83257310815816,26.56460364115503,83.47358023214466,0.0,0,0.0,,,,,,
33.00000000000003,0.8795967396034855,105.7960910177881,26.832247504941126,85.70712961439918,0.0,0,0.0,,,,,,
34.00000000000003,0.8911143050481478,106.75960892741804,27.09989136872722,87.9406789966537,0.0,0,0.0,,,,,,
35.00000000000003,0.9023430114459954,107.72312683704799,27.367535232513315,90.17422837890823,0.0,0,0.0,,,,,,
36.00000000000003,0.9132969933978952,108.68664474667793,27.63517909629941,92.40777776116275,0.0,0,0.0,,,,,,
37.00000000000003,0.9239893728189048,109.65016265630787,27.902822960085505,94.64132714341727,0.0,0,0.0,,,,,,
37.36308338453877,0.92781924396481,110.0,28.0,94.96473045303212,0.0,0,0.0,,,,,,
38.36308338453877,0.9383003160272689,111.0,28.0,95.85544405598503,0.0,0,0.0,,,,,,
39.36308338453877,0.948724831264983,112.0,28.0,96.0,0.0,0,0.0,,,,,,
40.36308338453877,0.9591414979316496,113.0,28.0,96.0,0.0,0,0.0,,,,,,
41.36308338453877,0.9695581645983162,114.0,28.0,96.0,0.0,0,0.0,,,,,,
42.36308338453877,0.9799748312649829,115.0,28.0,96.0,0.0,0,0.0,,,,,,
43.36308338453877,0.9903914979316495,116.0,28.0,96.0,0.0,0,0.0,,,,,,
44.36308338453877,1.0008081645983162,117.0,28.0,96.0,0.0,0,0.0,,,,,,
45.36308338453877,1.011224831264983,118.0,28.0,96.0,0.0,0,0.0,,,,,,
46.36308338453877,1.0216414979316497,119.0,28.0,96.0,0.0,0,0.0,,,,,,
47.36308338453877,1.0320581645983165,120.0,28.0,96.0,0.0,0,0.0,,,,,,
48.36308338453877,1.0424748312649832,121.0,28.0,96.0,0.0,0,0.0,,,,,,
49.36308338453877,1.05289149793165,122.0,28.0,96.0,0.0,0,0.0,,,,,,
50.36308338453877,1.0633081645983167,123.0,28.0,96.0,0.0,0,0.0,,,,,,
51.36308338453877,1.0737248312649834,124.0,28.0,96.0,0.0,0,0.0,,,,,,
52.36308338453877,1.0841414979316502,125.0,28.0,96.0,0.0,0,0.0,,,,,,
53.36308338453877,1.094558164598317,126.0,28.0,96.0,0.0,0,0.0,,,,,,
54.36308338453877,1.1049748312649836,127.0,28.0,96.0,0.0,0,0.0,,,,,,
55.36308338453877,1.1153914979316504,128.0,28.0,96.0,0.0,0,0.0,,,,,,
56.36308338453877,1.1258081645983171,129.0,28.0,96.0,0.0,0,0.0,,,,,,
57.36308338453877,1.1362248312649839,130.0,28.0,96.0,0.0,0,0.0,,,,,,
58.36308338453877,1.1466414979316506,131.0,28.0,96.0,0.0,0,0.0,,,,,,
59.36308338453877,1.1570581645983173,132.0,28.0,96.0,0.0,0,0.0,,,,,,
60.36308338453877,1.167474831264984,133.0,28.0,96.0,0.0,0,0.0,,,,,,
61.36308338453877,1.1778914979316508,134.0,28.0,96.0,0.0,0,0.0,,,,,,
62.36308338453877,1.1883081645983176,135.0,28.0,96.0,0.0,0,0.0,,,,,,
63.36308338453877,1.1987248312649843,136.0,28.0,96.0,0.0,0,0.0,,,,,,
64.36308338453877,1.209141497931651,137.0,28.0,96.0,0.0,0,0.0,,,,,,
65.36308338453877,1.2195581645983178,138.0,28.0,96.0,0.0,0,0.0,,,,,,
66.36308338453877,1.2299748312649845,139.0,28.0,96.0,0.0,0,0.0,,,,,,
67.36308338453877,1.2403914979316513,140.0,28.0,96.0,0.0,0,0.0,,,,,,
68.36308338453877,1.250808164598318,141.0,28.0,96.0,0.0,0,-0.0,,,,,,
69.36308338453877,1.2612248312649847,142.0,28.0,96.0,0.0,0,-0.0,,,,,,
70.36308338453877,1.2716414979316515,143.0,28.0,96.0,0.0,0,-0.0,,,,,,
71.36308338453877,1.2820581645983182,144.0,28.0,96.0,0.0,0,-0.0,,,,,,
72.36308338453877,1.292474831264985,145.0,28.0,96.0,0.0,0,-0.0,,,,,,
73.36308338453877,1.3028914979316517,146.0,28.0,96.0,0.0,0,-0.0,,,,,,
74.36308338453877,1.3133081645983185,147.0,28.0,96.0,0.0,0,-0.0,,,,,,
75.36308338453877,1.3237248312649852,148.0,28.0,96.0,0.0,0,-0.0,,,,,,
76.36308338453877,1.334141497931652,149.0,28.0,96.0,0.0,0,-0.0,,,,,,
77.36308338453877,1.3445581645983187,150.0,28.0,96.0,0.0,0,-0.0,,,,,,
78.36308338453877,1.3549748312649854,151.0,28.0,96.0,0.0,0,-0.0,,,,,,
79.36308338453877,1.3653914979316522,152.0,28.0,96.0,0.0,0,-0.0,,,,,,
80.36308338453877,1.375808164598319,153.0,28.0,96.0,0.0,0,-0.0,,,,,,
81.36308338453877,1.3862248312649856,154.0,28.0,96.0,0.0,0,-0.0,,,,,,
82.36308338453877,1.3966414979316524,155.0,28.0,96.0,0.0,0,-0.0,,,,,,
83.36308338453877,1.4070581645983191,156.0,28.0,96.0,0.0,0,-0.0,,,,,,
84.36308338453877,1.4174748312649859,157.0,28.0,96.0,0.0,0,-0.0,,,,,,
85.36308338453877,1.4278914979316526,158.0,28.0,96.0,0.0,0,-0.0,,,,,,
86.36308338453877,1.4383081645983193,159.0,28.0,96.0,0.0,0,-0.0,,,,,,
87.36308338453877,1.448724831264986,160.0,28.0,96.0,0.0,0,-0.0,,,,,,
88.36308338453877,1.4591414979316528,161.0,28.0,96.0,0.0,0,-0.0,,,,,,
89.36308338453877,1.4695581645983196,162.0,28.0,96.0,0.0,0,-0.0,,,,,,
90.36308338453877,1.4799748312649863,163.0,28.0,96.0,0.0,0,-0.0,,,,,,
91.36308338453877,1.490391497931653,164.0,28.0,96.0,0.0,0,-0.0,,,,,,
92.36308338453877,1.5008081645983198,165.0,28.0,96.0,0.0,0,-0.0,,,,,,
93.36308338453877,1.5112248312649865,166.0,28.0,96.0,0.0,0,-0.0,,,,,,
94.36308338453877,1.5216414979316533,167.0,28.0,96.0,0.0,0,-0.0,,,,,,
95.36308338453877,1.53205816459832,168.0,28.0,96.0,0.0,0,0.0,,,,,,
96.36308338453877,1.5424748312649867,169.0,28.0,96.0,0.0,0,0.0,,,,,,
97.36308338453877,1.5528914979316535,170.0,28.0,96.0,0.0,0,0.0,,,,,,
98.36308338453877,1.5633081645983202,171.0,28.0,96.0,0.0,0,0.0,,,,,,
99.36308338453877,1.573724831264987,172.0,28.0,96.0,0.0,0,0.0,,,,,,
100.36308338453877,1.5841414979316537,173.0,28.0,96.0,0.0,0,0.0,,,,,,
101.36308338453877,1.5945581645983204,174.0,28.0,96.0,0.0,0,0.0,,,,,,
102.36308338453877,1.6049748312649872,175.0,28.0,96.0,0.0,0,0.0,,,,,,
103.36308338453877,1.615391497931654,176.0,28.0,96.0,0.0,0,0.0,,,,,,
104.36308338453877,1.6258081645983207,177.0,28.0,96.0,0.0,0,0.0,,,,,,
105.36308338453877,1.6362248312649874,178.0,28.0,96.0,0.0,0,0.0,,,,,,
106.36308338453877,1.6466414979316542,179.0,28.0,96.0,0.0,0,0.0,,,,,,
107.36308338453877,1.657058164598321,180.0,28.0,96.0,0.0,0,0.0,,,,,,
108.36308338453877,1.6674748312649876,181.0,28.0,96.0,0.0,0,0.0,,,,,,
109.36308338453877,1.6778914979316544,182.0,28.0,96.0,0.0,0,0.0,,,,,,
110.36308338453877,1.6883081645983211,183.0,28.0,96.0,0.0,0,0.0,,,,,,
111.36308338453877,1.6987248312649879,184.0,28.0,96.0,0.0,0,0.0,,,,,,
112.36308338453877,1.7091414979316546,185.0,28.0,96.0,0.0,0,0.0,,,,,,
113.36308338453877,1.7195581645983213,186.0,28.0,96.0,0.0,0,0.0,,,,,,
114.36308338453877,1.729974831264988,187.0,28.0,96.0,0.0,0,0.0,,,,,,
115.36308338453877,1.7403914979316548,188.0,28.0,96.0,0.0,0,0.0,,,,,,
116.36308338453877,1.7508081645983216,189.0,28.0,96.0,0.0,0,0.0,,,,,,
117.36308338453877,1.7612248312649883,190.0,28.0,96.0,0.0,0,0.0,,,,,,
118.36308338453877,1.771641497931655,191.0,28.0,96.0,0.0,0,0.0,,,,,,
119.36308338453877,1.7820581645983218,192.0,28.0,96.0,0.0,0,0.0,,,,,,
120.36308338453877,1.7924748312649885,193.0,28.0,96.0,0.0,0,0.0,,,,,,
121.36308338453877,1.8028914979316553,194.0,28.0,96.0,0.0,0,0.0,,,,,,
122.36308338453877,1.813308164598322,195.0,28.0,96.0,0.0,0,0.0,,,,,,
123.36308338453877,1.8237248312649887,196.0,28.0,96.0,0.0,0,0.0,,,,,,
124.36308338453877,1.8341414979316555,197.0,28.0,96.0,0.0,0,0.0,,,,,,
125.36308338453877,1.8445581645983222,198.0,28.0,96.0,0.0,0,0.0,,,,,,
126.36308338453877,1.854974831264989,199.0,28.0,96.0,0.0,0,0.0,,,,,,
127.36308338453877,1.8655011470544627,200.0,28.0,94.0,0.0,0,0.0,,,,,,
128.36308338453875,1.8762538352265055,201.0,28.0,92.00000000000003,0.0,0,0.0,,,,,,
129.36308338453875,1.8872428462155164,202.0,28.0,90.00000000000003,0.0,0,0.0,,,,,,
130.36308338453875,1.8984788012716962,203.0,28.0,88.00000000000003,0.0,0,0.0,,,,,,
131.36308338453875,1.9099730541452595,204.0,28.0,86.00000000000003,0.0,0,0.0,,,,,,
132.36308338453875,1.9217377600276124,205.0,28.0,84.00000000000003,0.0,0,0.0,,,,,,
133.36308338453875,1.9337859527986967,206.0,28.0,82.00000000000003,0.0,0,0.0,,,,,,
134.36308338453875,1.9461316318110424,207.0,28.0,80.00000000000003,0.0,0,0.0,,,,,,
135.36308338453875,1.9587898596591438,208.0,28.0,78.00000000000003,0.0,0,0.0,,,,,,
136.36308338453875,1.9717768726461566,209.0,28.0,76.00000000000003,0.0,0,0.0,,,,,,
137.36308338453875,1.98511020597949,210.0,28.0,74.00000000000003,0.0,0,0.0,,,,,,
138.36308338453875,1.9988088361164764,211.0,28.0,72.00000000000003,0.0,0,0.0,,,,,,
139.36308338453875,2.01289334315873,212.0,28.0,70.00000000000003,0.0,0,0.0,,,,,,
140.36308338453875,2.0273860967819184,213.0,28.0,68.00000000000003,0.0,0,0.0,,,,,,
141.36308338453875,2.0423114699162466,214.0,28.0,66.00000000000003,0.0,0,0.0,,,,,,
142.36308338453875,2.057696085300862,215.0,28.0,64.00000000000003,0.0,0,0.0,,,,,,
143.36308338453875,2.0735691011738777,216.0,28.0,62.00000000000003,0.0,0,0.0,,,,,,
144.36308338453875,2.0899625437968283,217.0,28.0,60.00000000000003,0.0,0,0.0,,,,,,
145.36308338453875,2.106911696339201,218.0,28.0,58.00000000000003,0.0,0,0.0,,,,,,
146.36308338453875,2.124455555988324,219.0,28.0,56.00000000000003,0.0,0,0.0,,,,,,
147.36308338453875,2.142637374170142,220.0,28.0,54.00000000000003,0.0,0,0.0,,,,,,
148.36308338453875,2.1615052986984438,221.0,28.0,52.00000000000003,0.0,0,0.0,,,,,,
149.36308338453875,2.1811131418356986,222.0,28.0,50.00000000000003,0.0,0,0.0,,,,,,
150.36308338453875,2.2015213051010045,223.0,28.0,48.00000000000003,0.0,0,0.0,,,,,,
151.36308338453875,2.2227979008456855,224.0,28.0,46.00000000000003,0.0,0,0.0,,,,,,
152.36308338453875,2.2450201230679077,225.0,28.0,44.00000000000003,0.0,0,0.0,,,,,,
153.36308338453875,2.268275937021396,226.0,28.0,42.00000000000003,0.0,0,0.0,,,,,,
154.36308338453875,2.292666180923835,227.0,28.0,40.00000000000003,0.0,0,0.0,,,,,,
155.36308338453875,2.3183072065648607,228.0,28.0,38.00000000000003,0.0,0,0.0,,,,,,
156.36308338453875,2.345334233591888,229.0,28.0,36.00000000000003,0.0,0,0.0,,,,,,
157.36308338453875,2.3739056621633163,230.0,28.0,34.00000000000003,0.0,0,0.0,,,,,,
158.36308338453875,2.4042086924663466,231.0,28.0,32.00000000000003,0.0,0,0.0,,,,,,
159.36308338453875,2.4364667569824756,232.0,28.0,30.00000000000003,0.0,0,-0.0,,,,,,
160.36308338453875,2.470949515603165,233.0,28.0,28.00000000000003,0.0,0,-0.0,,,,,,
161.36308338453875,2.5079865526402023,234.0,28.0,26.00000000000003,0.0,0,-0.0,,,,,,
162.36308338453875,2.5479865526402024,235.0,28.0,24.00000000000003,0.0,0,-0.0,,,,,,
163.36308338453875,2.5914648135097673,236.0,28.0,22.00000000000003,0.0,0,-0.0,,,,,,
164.36308338453875,2.6390838611288148,237.0,28.0,20.00000000000003,0.0,0,-0.0,,,,,,
165.36308338453875,2.691715440076183,238.0,28.0,18.00000000000003,0.0,0,-0.0,,,,,,
166.36308338453875,2.7505389694879474,239.0,28.0,16.00000000000003,0.0,0,-0.0,,,,,,
167.36308338453875,2.817205636154614,240.0,28.0,14.000000000000028,0.0,0,-0.0,,,,,,
168.36308338453875,2.8941287130776905,241.0,28.0,12.000000000000028,0.0,0,0.0,,,,,,
169.36308338453875,2.9774620464110235,242.0,28.0,12.0,0.0,0,0.0,,,,,,
170.36308338453875,3.060795379744357,243.0,28.0,12.0,0.0,0,0.0,,,,,,
171.36308338453875,3.1441287130776905,244.0,28.0,12.0,0.0,0,0.0,,,,,,
172.36308338453875,3.227462046411024,245.0,28.0,12.0,0.0,0,0.0,,,,,,
173.36308338453875,3.3107953797443574,246.0,28.0,12.0,0.0,0,0.0,,,,,,
174.36308338453875,3.394128713077691,247.0,28.0,12.0,0.0,0,0.0,,,,,,
175.36308338453875,3.5607953797443574,248.0,28.0,0.0,0.0,0,0.0,,,,,,
