Distance (in),Time (s),X (in),Y (in),Velocity (in/s),Orientation (deg),Touch,Rotational Velocity (deg/s),Way X (in),Way Y (in),Way Velocity (in/s),Way Orientation (deg),Way Turn Radius (in),Touch this Point
0.0,0.0,260.0,181.0,12.0,0.0,0,0.0,260.0,181.0,12.0,0.0,3.0,0
1.0,0.07874015748031496,259.0,181.0,13.4,0.0,0,0.0,200.0,181.0,96.0,0.0,3.0,0
2.0,0.1496621432959178,258.0,181.0,14.8,0.0,0,0.0,78.0,181.0,36.0,0.0,10.0,0
3.0,0.21417827232817585,257.0,181.0,16.2,0.0,0,0.0,74.0,174.0,12.0,0.0,3.0,0
4.0,0.27334986996131194,256.0,181.0,17.599999999999998,0.0,0,0.0,,,,,,
5.0,0.32799467870448135,255.0,181.0,18.999999999999996,0.0,0,0.0,,,,,,
6.0,0.3787561000242783,254.0,181.0,20.399999999999995,0.0,0,0.0,,,,,,
7.0,0.42614946495318823,253.0,181.0,21.799999999999994,0.0,0,0.0,,,,,,
8.0,0.4705939093976327,252.0,181.0,23.199999999999992,0.0,0,0.0,,,,,,
9.0,0.5124349135817331,251.0,181.0,24.59999999999999,0.0,0,0.0,,,,,,
10.0,0.5519606052813378,250.0,181.0,25.99999999999999,0.0,0,-0.0,,,,,,
11.0,0.5894137888019371,249.0,181.0,27.399999999999988,0.0,0,-0.0,,,,,,
12.0,0.6250009774140367,248.0,181.0,28.799999999999986,0.0,0,-0.0,,,,,,
13.0,0.6588992824987825,247.0,181.0,30.199999999999985,0.0,0,-0.0,,,,,,
14.0,0.6912617420457081,246.0,181.0,31.599999999999984,0.0,0,-0.0,,,,,,
15.0,0.7222214943676896,245.0,181.0,32.999999999999986,0.0,0,-0.0,,,,,,
16.0,0.7518950848721406,244.0,181.0,34.399999999999984,0.0,0,-0.0,,,,,,
17.0,0.7803851133621691,243.0,181.0,35.79999999999998,0.0,0,-0.0,,,,,,
18.0,0.8077823736361417,242.0,181.0,37.19999999999998,0.0,0,-0.0,,,,,,
19.0,0.8341675979105481,241.0,181.0,38.59999999999998,0.0,0,-0.0,,,,,,
20.0,0.8596128905314132,240.0,181.0,39.99999999999998,0.0,0,-0.0,,,,,,
21.0,0.8841829151014378,239.0,181.0,41.39999999999998,0.0,0,-0.0,,,,,,
22.0,0.9079358842225779,238.0,181.0,42.799999999999976,0.0,0,-0.0,,,,,,
23.0,0.9309243899697043,237.0,181.0,44.199999999999974,0.0,0,-0.0,,,,,,
24.0,0.9531961048917533,236.0,181.0,45.59999999999997,0.0,0,-0.0,,,,,,
25.0,0.9747943770299823,235.0,181.0,46.99999999999997,0.0,0,0.0,,,,,,
26.0,0.9957587376169844,234.0,181.0,48.39999999999997,0.0,0,0.0,,,,,,
27.0,1.0161253363949885,233.0,181.0,49.79999999999997,0.0,0,0.0,,,,,,
28.0,1.0359273165930083,232.0,181.0,51.19999999999997,0.0,0,0.0,,,,,,
29.0,1.055195139329039,231.0,181.0,52.599999999999966,0.0,0,0.0,,,,,,
30.0,1.0739568654078384,230.0,181.0,53.999999999999964,0.0,0,0.0,,,,,,
31.0,1.092238401056833,229.0,181.0,55.39999999999996,0.0,0,0.0,,,,,,
32.0,1.110063712999792,228.0,181.0,56.79999999999996,0.0,0,0.0,,,,,,
33.0,1.127455017347618,227.0,181.0,58.19999999999996,0.0,0,0.0,,,,,,
34.0,1.1444329460403175,226.0,181.0,59.59999999999996,0.0,0,0.0,,,,,,
35.0,1.161016693967349,225.0,181.0,60.99999999999996,0.0,0,0.0,,,,,,
36.0,1.1772241493968465,224.0,181.0,62.399999999999956,0.0,0,0.0,,,,,,
37.0,1.1930720099356737,223.0,181.0,63.799999999999955,0.0,0,0.0,,,,,,
38.0,1.208575885904666,222.0,181.0,65.19999999999996,0.0,0,0.0,,,,,,
39.0,1.223750392733194,221.0,181.0,66.59999999999997,0.0,0,0.0,,,,,,
40.0,1.2386092337435952,220.0,181.0,67.99999999999997,0.0,0,0.0,,,,,,
41.0,1.2531652745005093,219.0,181.0,69.39999999999998,0.0,0,0.0,,,,,,
42.0,1.2674306097358874,218.0,181.0,70.79999999999998,0.0,0,0.0,,,,,,
43.0,1.2814166237219013,217.0,181.0,72.19999999999999,0.0,0,0.0,,,,,,
44.0,1.29513404484673,216.0,181.0,73.6,0.0,0,0.0,,,,,,
45.0,1.3085929950486141,215.0,181.0,75.0,0.0,0,0.0,,,,,,
46.0,1.321803034678733,214.0,181.0,76.4,0.0,0,0.0,,,,,,
47.0,1.334773203290925,213.0,181.0,77.80000000000001,0.0,0,0.0,,,,,,
48.0,1.3475120567941097,212.0,181.0,79.20000000000002,0.0,0,0.0,,,,,,
49.0,1.3600277013498043,211.0,181.0,80.60000000000002,0.0,0,0.0,,,,,,
50.0,1.3723278243510344,210.0,181.0,82.00000000000003,0.0,0,0.0,,,,,,
51.0,1.3844197227790875,209.0,181.0,83.40000000000003,0.0,0,0.0,,,,,,
52.0,1.396310329200015,208.0,181.0,84.80000000000004,0.0,0,0.0,,,,,,
53.0,1.4080062356327634,207.0,181.0,86.20000000000005,0.0,0,0.0,,,,,,
54.0,1.4195137154946735,206.0,181.0,87.60000000000005,0.0,0,0.0,,,,,,
55.0,1.4308387438072443,205.0,181.0,89.00000000000006,0.0,0,0.0,,,,,,
56.0,1.4419870158250816,204.0,181.0,90.40000000000006,0.0,0,0.0,,,,,,
57.0,1.452963964233424,203.0,181.0,91.80000000000007,0.0,0,0.0,,,,,,
58.0,1.4637747750442347,202.0,181.0,93.20000000000007,0.0,0,0.0,,,,,,
59.0,1.4744244023072806,201.0,181.0,94.60000000000008,0.0,0,0.0,,,,,,
60.0,1.4850221325299757,200.0,181.0,94.11965581054221,0.0,0,0.0,,,,,,
61.0,1.495674087146888,199.0,181.0,93.63931162108435,0.0,0,0.0,,,,,,
62.0,1.5063808239013292,198.0,181.0,93.15896743162648,0.0,0,0.0,,,,,,
63.0,1.5171429091863813,197.0,181.0,92.67862324216861,0.0,0,0.0,,,,,,
64.0,1.5279609182246872,196.0,181.0,92.19827905271075,0.0,0,0.0,,,,,,
65.0,1.538835435252935,195.0,181.0,91.71793486325288,0.0,0,0.0,,,,,,
66.0,1.549767053711187,194.0,181.0,91.23759067379501,0.0,0,0.0,,,,,,
67.0,1.560756376437206,193.0,181.0,90.75724648433714,0.0,0,0.0,,,,,,
68.0,1.571804015865937,192.0,181.0,90.27690229487928,0.0,0,0.0,,,,,,
69.0,1.5829105942343098,191.0,181.0,89.79655810542141,0.0,0,0.0,,,,,,
70.0,1.5940767437915353,190.0,181.0,89.31621391596354,0.0,0,0.0,,,,,,
71.0,1.6053031070150705,189.0,181.0,88.83586972650568,0.0,0,0.0,,,,,,
72.0,1.6165903368324395,188.0,181.0,88.35552553704781,0.0,0,0.0,,,,,,
73.0,1.6279390968490988,187.0,181.0,87.87518134758994,0.0,0,0.0,,,,,,
74.0,1.6393500615825491,186.0,181.0,87.39483715813208,0.0,0,0.0,,,,,,
75.0,1.6508239167028977,185.0,181.0,86.91449296867421,0.0,0,0.0,,,,,,
76.0,1.6623613592800868,184.0,181.0,86.43414877921634,0.0,0,0.0,,,,,,
77.0,1.6739630980380107,183.0,181.0,85.95380458975848,0.0,0,0.0,,,,,,
78.0,1.6856298536157537,182.0,181.0,85.47346040030061,0.0,0,0.0,,,,,,
79.0,1.6973623588361892,181.0,181.0,84.99311621084274,0.0,0,0.0,,,,,,
80.0,1.7091613589821897,180.0,181.0,84.51277202138488,0.0,0,0.0,,,,,,
81.0,1.7210276120807095,179.0,181.0,84.03242783192701,0.0,0,0.0,,,,,,
82.0,1.7329618891950094,178.0,181.0,83.55208364246914,0.0,0,0.0,,,,,,
83.0,1.7449649747253055,177.0,181.0,83.07173945301128,0.0,0,0.0,,,,,,
84.0,1.7570376667181369,176.0,181.0,82.59139526355341,0.0,0,0.0,,,,,,
85.0,1.7691807771847532,175.0,181.0,82.11105107409554,0.0,0,0.0,,,,,,
86.0,1.7813951324288446,174.0,181.0,81.63070688463768,0.0,0,0.0,,,,,,
87.0,1.7936815733839417,173.0,181.0,81.15036269517981,0.0,0,0.0,,,,,,
88.0,1.806040955960831,172.0,181.0,80.67001850572194,0.0,0,0.0,,,,,,
89.0,1.8184741514053435,171.0,181.0,80.18967431626407,0.0,0,0.0,,,,,,
90.0,1.8309820466668933,170.0,181.0,79.70933012680621,0.0,0,0.0,,,,,,
91.0,1.8435655447781525,169.0,181.0,79.22898593734834,0.0,0,0.0,,,,,,
92.0,1.8562255652462714,168.0,181.0,78.74864174789047,0.0,0,0.0,,,,,,
93.0,1.8689630444560668,167.0,181.0,78.26829755843261,0.0,0,0.0,,,,,,
94.0,1.8817789360856199,166.0,181.0,77.78795336897474,0.0,0,0.0,,,,,,
95.0,1.8946742115347461,165.0,181.0,77.30760917951687,0.0,0,0.0,,,,,,
96.0,1.907649860366818,164.0,181.0,76.827264990059,0.0,0,0.0,,,,,,
97.0,1.9207068907644422,163.0,181.0,76.34692080060114,0.0,0,0.0,,,,,,
98.0,1.933846329999518,162.0,181.0,75.86657661114327,0.0,0,0.0,,,,,,
99.0,1.9470692249182229,161.0,181.0,75.3862324216854,0.0,0,0.0,,,,,,
100.0,1.9603766424414977,160.0,181.0,74.90588823222754,0.0,0,0.0,,,,,,
101.0,1.9737696700816327,159.0,181.0,74.42554404276967,0.0,0,0.0,,,,,,
102.0,1.9872494164755767,158.0,181.0,73.9451998533118,0.0,0,0.0,,,,,,
103.0,2.000817011935624,157.0,181.0,73.46485566385394,0.0,0,0.0,,,,,,
104.0,2.0144736090181636,156.0,181.0,72.98451147439607,0.0,0,0.0,,,,,,
105.0,2.0282203831112073,155.0,181.0,72.5041672849382,0.0,0,0.0,,,,,,
106.0,2.042058533041444,154.0,181.0,72.02382309548034,0.0,0,0.0,,,,,,
107.0,2.0559892817016023,153.0,181.0,71.54347890602247,0.0,0,0.0,,,,,,
108.0,2.0700138766989498,152.0,181.0,71.0631347165646,0.0,0,0.0,,,,,,
109.0,2.0841335910257786,151.0,181.0,70.58279052710674,0.0,0,0.0,,,,,,
110.0,2.0983497237527873,150.0,181.0,70.10244633764887,0.0,0,0.0,,,,,,
111.0,2.112663600746297,149.0,181.0,69.622102148191,0.0,0,0.0,,,,,,
112.0,2.1270765754102974,148.0,181.0,69.14175795873314,0.0,0,0.0,,,,,,
113.0,2.141590029454356,147.0,181.0,68.66141376927527,0.0,0,0.0,,,,,,
114.0,2.156205373688485,146.0,181.0,68.1810695798174,0.0,0,0.0,,,,,,
115.0,2.170924048846102,145.0,181.0,67.70072539035954,0.0,0,0.0,,,,,,
116.0,2.185747526436298,144.0,181.0,67.22038120090167,0.0,0,-0.0,,,,,,
117.0,2.200677309626656,143.0,181.0,66.7400370114438,0.0,0,-0.0,,,,,,
118.0,2.21571493415796,142.0,181.0,66.25969282198594,0.0,0,-0.0,,,,,,
119.0,2.230861969292178,141.0,181.0,65.77934863252807,0.0,0,-0.0,,,,,,
120.0,2.2461200187951844,140.0,181.0,65.2990044430702,0.0,0,-0.0,,,,,,
121.0,2.26149072195576,139.0,181.0,64.81866025361234,0.0,0,-0.0,,,,,,
122.0,2.2769757546424914,138.0,181.0,64.33831606415447,0.0,0,-0.0,,,,,,
123.0,2.29257683040027,137.0,181.0,63.8579718746966,0.0,0,-0.0,,,,,,
124.0,2.308295701588187,136.0,181.0,63.377627685238735,0.0,0,-0.0,,,,,,
125.0,2.324134160560713,135.0,181.0,62.89728349578087,0.0,0,-0.0,,,,,,
126.0,2.340094040894156,134.0,181.0,62.416939306323,0.0,0,-0.0,,,,,,
127.0,2.3561772186604895,133.0,181.0,61.936595116865135,0.0,0,-0.0,,,,,,
128.0,2.3723856137507724,132.0,181.0,61.45625092740727,0.0,0,-0.0,,,,,,
129.0,2.3887211912504895,131.0,181.0,60.9759067379494,0.0,0,-0.0,,,,,,
130.0,2.4051859628692784,130.0,181.0,60.495562548491534,0.0,0,-0.0,,,,,,
131.0,2.421781988427645,129.0,181.0,60.01521835903367,0.0,0,-0.0,,,,,,
132.0,2.4385113774034113,128.0,181.0,59.5348741695758,0.0,0,-0.0,,,,,,
133.0,2.4553762905408063,127.0,181.0,59.054529980117934,0.0,0,-0.0,,,,,,
134.0,2.4723789415252595,126.0,181.0,58.57418579066007,0.0,0,-0.0,,,,,,
135.0,2.4895215987271544,125.0,181.0,58.0938416012022,0.0,0,-0.0,,,,,,
136.0,2.506806587017968,124.0,181.0,57.61349741174433,0.0,0,-0.0,,,,,,
137.0,2.5242362896624377,123.0,181.0,57.13315322228647,0.0,0,-0.0,,,,,,
138.0,2.5418131502906043,122.0,181.0,56.6528090328286,0.0,0,-0.0,,,,,,
139.0,2.5595396749538155,121.0,181.0,56.17246484337073,0.0,0,-0.0,,,,,,
140.0,2.5774184342690107,120.0,181.0,55.692120653912866,0.0,0,-0.0,,,,,,
141.0,2.5954520656558806,119.0,181.0,55.211776464455,0.0,0,-0.0,,,,,,
142.0,2.6136432756717687,118.0,181.0,54.73143227499713,0.0,0,-0.0,,,,,,
143.0,2.6319948424494832,117.0,181.0,54.251088085539266,0.0,0,-0.0,,,,,,
144.0,2.6505096182435124,116.0,181.0,53.7707438960814,0.0,0,-0.0,,,,,,
145.0,2.6691905320904805,115.0,181.0,53.29039970662353,0.0,0,-0.0,,,,,,
146.0,2.6880405925900472,114.0,181.0,52.810055517165665,0.0,0,-0.0,,,,,,
147.0,2.7070628908128582,113.0,181.0,52.3297113277078,0.0,0,-0.0,,,,,,
148.0,2.7262606033425723,112.0,181.0,51.84936713824993,0.0,0,-0.0,,,,,,
149.0,2.745636995459456,111.0,181.0,51.369022948792065,0.0,0,-0.0,,,,,,
150.0,2.765195424473523,110.0,181.0,50.8886787593342,0.0,0,-0.0,,,,,,
151.0,2.784939343215728,109.0,181.0,50.40833456987633,0.0,0,0.0,,,,,,
152.0,2.8048723036962993,108.0,181.0,49.927990380418464,0.0,0,0.0,,,,,,
153.0,2.824997960939898,107.0,181.0,49.4476461909606,0.0,0,0.0,,,,,,
154.0,2.8453200770079645,106.0,181.0,48.96730200150273,0.0,0,0.0,,,,,,
155.0,2.865842525219325,105.0,181.0,48.486957812044864,0.0,0,0.0,,,,,,
156.0,2.886569294580897,104.0,181.0,48.006613622587,0.0,0,0.0,,,,,,
157.0,2.9075044944411754,103.0,181.0,47.52626943312913,0.0,0,0.0,,,,,,
158.0,2.928652359380072,102.0,181.0,47.04592524367126,0.0,0,0.0,,,,,,
159.0,2.9500172543496683,101.0,181.0,46.565581054213396,0.0,0,0.0,,,,,,
160.0,2.9716036800814862,100.0,181.0,46.08523686475553,0.0,0,0.0,,,,,,
161.0,2.993416278777034,99.0,181.0,45.60489267529766,0.0,0,0.0,,,,,,
162.0,3.0154598400996258,98.0,181.0,45.124548485839796,0.0,0,0.0,,,,,,
163.0,3.037739307486813,97.0,181.0,44.64420429638193,0.0,0,0.0,,,,,,
164.0,3.0602597848042485,96.0,181.0,44.16386010692406,0.0,0,0.0,,,,,,
165.0,3.083026543363374,95.0,181.0,43.683515917466195,0.0,0,0.0,,,,,,
166.0,3.106045029327077,94.0,181.0,43.20317172800833,0.0,0,0.0,,,,,,
167.0,3.129320871529338,93.0,181.0,42.72282753855046,0.0,0,0.0,,,,,,
168.0,3.152859889736954,92.0,181.0,42.242483349092595,0.0,0,0.0,,,,,,
169.0,3.176668103383676,91.0,181.0,41.76213915963473,0.0,0,0.0,,,,,,
170.0,3.2007517408095434,90.0,181.0,41.28179497017686,0.0,0,0.0,,,,,,
171.0,3.225117249040901,89.0,181.0,40.801450780718994,0.0,0,0.0,,,,,,
172.0,3.2497713041495087,88.0,181.0,40.32110659126113,0.0,0,0.0,,,,,,
173.0,3.2747208222323896,87.0,181.0,39.84076240180326,0.0,0,0.0,,,,,,
174.0,3.2999729710575894,86.0,181.0,39.360418212345394,0.0,0,0.0,,,,,,
175.0,3.325535182424907,85.0,181.0,38.88007402288753,0.0,0,0.0,,,,,,
176.0,3.3514151652949273,84.0,181.0,38.39972983342966,0.0,0,0.0,,,,,,
176.99793789140824,3.377566541222462,83.00257861772502,180.96789670906315,37.92037616585188,0.0,0,0.0,,,,,,
177.99752127682183,3.4040945485855776,82.01144933124525,180.83816744529838,37.44023209478984,0.0,0,0.0,,,,,,
178.9971046622354,3.4309649540844047,81.03822287850954,180.610138464486,36.96008802372782,0.0,0,0.0,,,,,,
179.99668804764895,3.4581867119870937,80.09262341652777,180.28608815682588,36.4799439526658,0.0,0,0.0,,,,,,
180.9962714330625,3.485769056313032,79.1840990625504,179.8692543258754,36.0,0.0,0,0.0,,,,,,
181.9958548184761,3.514928090196692,78.32172749160416,179.36380183748645,32.560802761967686,0.0,0,0.0,,,,,,
182.99543820388965,3.547338737354968,77.5141252353638,178.77478100584267,29.12160552393547,0.0,0,0.0,,,,,,
183.9950215893032,3.583817210952977,76.76936158861588,178.1080771323894,25.682408285903257,0.0,0,0.0,,,,,,
184.99460497471676,3.6255311584953986,76.09487798353257,177.37035170184723,22.243211047871043,0.0,0,-0.0,,,,,,
185.99460497471676,3.6742572258897854,75.59873904517573,176.50210855972276,18.802580392921417,0.0,0,-0.0,,,,,,
186.99460497471676,3.7327974719384645,75.1026001068189,175.6338654175983,15.361949737971791,0.0,0,0.0,,,,,,
187.99460497471676,3.805891678278025,74.60646116846206,174.76562227547382,12.0,0.0,0,0.0,,,,,,
188.97132019296313,3.8872846131318894,74.0,174.0,12.0,0.0,0,0.0,,,,,,
