Distance (in),Time (s),X (in),Y (in),Velocity (in/s),Orientation (deg),Touch,Rotational Velocity (deg/s),Way X (in),Way Y (in),Way Velocity (in/s),Way Orientation (deg),Way Turn Radius (in),Touch this Point
0.0,0.0,74.0,153.0,12.0,0.0,0,0.0,74.0,153.0,12.0,0.0,3.0,0.0
0.9999999999999889,0.08039208052604202,74.63059262509447,153.77611400011625,12.878072403563465,0.0,0,0.0,100.0,185.0,48.0,0.0,20.0,0
1.9999999999999778,0.1554834558114107,75.26118525018893,154.5522280002325,13.75614480712693,0.0,0,0.0,200.0,183.0,96.0,0.0,3.0,0
2.9999999999999667,0.22592989811971276,75.8917778752834,155.32834200034875,14.634217210690394,0.0,0,0.0,282.0,183.0,12.0,0.0,3.0,0
3.9999999999999556,0.2922725762818509,76.52237050037786,156.104456000465,15.51228961425386,0.0,0,0.0,,,,,,
4.999999999999945,0.35496328999009363,77.15296312547233,156.88057000058126,16.390362017817324,0.0,0,0.0,,,,,,
5.999999999999934,0.4143831211065394,77.78355575056679,157.6566840006975,17.26843442138079,0.0,0,0.0,,,,,,
6.999999999999924,0.4708564605959143,78.41414837566126,158.43279800081376,18.146506824944254,0.0,0,0.0,,,,,,
7.999999999999913,0.5246617219521196,79.04474100075572,159.20891200093,19.02457922850772,0.0,0,0.0,,,,,,
8.999999999999902,0.5760396380223158,79.67533362585019,159.98502600104626,19.902651632071183,0.0,0,-0.0,,,,,,
9.999999999999892,0.6251997671211301,80.30592625094465,160.76114000116252,20.78072403563465,0.0,0,-0.0,,,,,,
10.999999999999881,0.6723256530317876,80.93651887603912,161.53725400127877,21.658796439198113,0.0,0,-0.0,,,,,,
11.99999999999987,0.7175789598264782,81.56711150113358,162.31336800139502,22.536868842761578,0.0,0,-0.0,,,,,,
12.99999999999986,0.7611028165825579,82.19770412622805,163.08948200151127,23.414941246325043,0.0,0,-0.0,,,,,,
13.999999999999849,0.8030245464984783,82.82829675132251,163.86559600162752,24.293013649888508,0.0,0,-0.0,,,,,,
14.999999999999838,0.8434579115449448,83.45888937641698,164.64171000174377,25.171086053451972,0.0,0,-0.0,,,,,,
15.999999999999828,0.8825049723138807,84.08948200151144,165.41782400186003,26.049158457015437,0.0,0,-0.0,,,,,,
16.999999999999815,0.9202576396013763,84.7200746266059,166.19393800197628,26.927230860578902,0.0,0,-0.0,,,,,,
17.999999999999805,0.95679897707065,85.35066725170037,166.97005200209253,27.805303264142367,0.0,0,-0.0,,,,,,
18.999999999999794,0.9922043014262242,85.98125987679484,167.74616600220878,28.683375667705832,0.0,0,-0.0,,,,,,
19.999999999999783,1.0265421167308597,86.6118525018893,168.52228000232503,29.561448071269297,0.0,0,0.0,,,,,,
20.999999999999773,1.0598749119917106,87.24244512698377,169.29839400244128,30.43952047483276,0.0,0,0.0,,,,,,
21.999999999999762,1.092259845344419,87.87303775207823,170.07450800255754,31.317592878396226,0.0,0,0.0,,,,,,
22.99999999999975,1.1237493336485846,88.5036303771727,170.8506220026738,32.19566528195969,0.0,0,0.0,,,,,,
23.99999999999974,1.1543915627646741,89.13422300226716,171.62673600279004,33.073737685523156,0.0,0,0.0,,,,,,
24.99999999999973,1.1842309309817827,89.76481562736163,172.4028500029063,33.95181008908662,0.0,0,0.0,,,,,,
25.99999999999972,1.213308435837065,90.3954082524561,173.17896400302254,34.829882492650086,0.0,0,0.0,,,,,,
26.99999999999971,1.2416620127829288,91.02600087755056,173.9550780031388,35.70795489621355,0.0,0,0.0,,,,,,
27.999999999999698,1.2693268327201945,91.65659350264502,174.73119200325505,36.586027299777015,0.0,0,0.0,,,,,,
28.999999999999687,1.2963355642503347,92.28718612773949,175.5073060033713,37.46409970334048,0.0,0,0.0,,,,,,
29.999999999999677,1.3227186055507472,92.91777875283395,176.28342000348755,38.342172106903945,0.0,0,0.0,,,,,,
30.999999999999666,1.3485042899997803,93.54837137792842,177.0595340036038,39.22024451046741,0.0,0,0.0,,,,,,
31.999834433985328,1.3737149405355018,94.18439019335723,177.83099298618419,40.09817153508273,0.0,0,0.0,,,,,,
32.99973027057382,1.3983810934461665,94.85420310880616,178.57338260244023,40.9761524756291,0.0,0,0.0,,,,,,
33.9996261071623,1.4225243358803306,95.56028294882233,179.28136773190957,41.85413341617546,0.0,0,0.0,,,,,,
34.99952194375078,1.44616637847981,96.300864881525,179.95317878048004,42.732114356721816,0.0,0,0.0,,,,,,
35.99941778033927,1.4693276072830919,97.07409783777001,180.5871365704027,43.61009529726819,0.0,0,0.0,,,,,,
36.99931361692777,1.492027189332654,97.87804913785871,181.1816565373615,44.48807623781456,0.0,0,0.0,,,,,,
37.999209453516244,1.5142831679632034,98.71070932223058,181.7352526910591,45.36605717836091,0.0,0,0.0,,,,,,
38.99910529010474,1.5361125489575993,99.56999717406576,182.24654132941856,46.244038118907284,0.0,0,0.0,,,,,,
39.99900112669324,1.5575313786009752,100.45376492124313,182.71424449711796,47.122019059453656,0.0,0,0.0,,,,,,
40.998896963281716,1.578394332246091,101.35980360465207,183.13719317981312,48.731698836580584,0.0,0,0.0,,,,,,
41.99879279987022,1.5985793484446686,102.28584859943992,183.51433022606477,50.34137861370756,0.0,0,0.0,,,,,,
42.998688636458716,1.6181290994500943,103.22958527539457,183.84471298966642,51.95105839083451,0.0,0,0.0,,,,,,
43.99858447304722,1.6370823514882455,104.18865478231473,184.12751568576908,53.560738167961475,0.0,0,0.0,,,,,,
44.9984803096357,1.6554744273629631,105.16065994590681,184.3620314549133,55.17041794508842,0.0,0,0.0,,,,,,
45.9983761462242,1.673337602545827,106.14317125947238,184.54767412980968,56.78009772221538,0.0,0,0.0,,,,,,
46.99827198281269,1.6907014459061667,107.13373295640949,184.6839797004518,58.38977749934232,0.0,0,0.0,,,,,,
47.99816781940118,1.7075931141137017,108.12986914835037,184.77060747389964,59.99945727646927,0.0,0,0.0,,,,,,
48.998167819401175,1.7240392974875278,109.12966920833037,184.75061147270006,61.609304740800106,0.0,0,0.0,,,,,,
49.99816781940117,1.7400612851731265,110.12946926831037,184.73061547150047,63.21915220513094,0.0,0,0.0,,,,,,
50.99816781940116,1.755680409469108,111.12926932829038,184.71061947030088,64.82899966946177,0.0,0,0.0,,,,,,
51.998167819401154,1.7709164329790967,112.12906938827038,184.6906234691013,66.43884713379259,0.0,0,0.0,,,,,,
52.99816781940115,1.7857876989286725,113.12886944825038,184.6706274679017,68.04869459812342,0.0,0,0.0,,,,,,
53.99816781940114,1.8003112639097172,114.12866950823039,184.65063146670212,69.65854206245425,0.0,0,0.0,,,,,,
54.99816781940113,1.8145030154610062,115.12846956821039,184.63063546550254,71.26838952678507,0.0,0,0.0,,,,,,
55.998167819401125,1.8283777765172535,116.1282696281904,184.61063946430295,72.8782369911159,0.0,0,0.0,,,,,,
56.99816781940112,1.8419493984480162,117.1280696881704,184.59064346310336,74.48808445544672,0.0,0,0.0,,,,,,
57.99816781940111,1.8552308441502285,118.1278697481504,184.57064746190377,76.09793191977755,0.0,0,0.0,,,,,,
58.998167819401104,1.8682342624436392,119.1276698081304,184.5506514607042,77.70777938410838,0.0,0,0.0,,,,,,
59.9981678194011,1.8809710548391199,120.12746986811041,184.5306554595046,79.3176268484392,0.0,0,0.0,,,,,,
60.99816781940109,1.8934519355993245,121.12726992809041,184.510659458305,80.92747431277003,0.0,0,0.0,,,,,,
61.99816781940108,1.9056869858844048,122.12706998807042,184.49066345710543,82.53732177710086,0.0,0,0.0,,,,,,
62.998167819401075,1.9176857026683054,123.12687004805042,184.47066745590584,84.14716924143168,0.0,0,0.0,,,,,,
63.99816781940107,1.9294570430202234,124.12667010803042,184.45067145470625,85.75701670576251,0.0,0,0.0,,,,,,
64.99816781940106,1.941009464268417,125.12647016801043,184.43067545350667,87.36686417009334,0.0,0,0.0,,,,,,
65.99816781940106,1.9523509604974436,126.12627022799043,184.41067945230708,88.97671163442418,0.0,0,0.0,,,,,,
66.99816781940106,1.9634890957732924,127.12607028797044,184.3906834511075,90.58655909875502,0.0,0,0.0,,,,,,
67.99816781940106,1.9744310344422389,128.12587034795044,184.3706874499079,92.19640656308586,0.0,0,-0.0,,,,,,
68.99816781940106,1.985183568807342,129.12567040793044,184.35069144870832,93.8062540274167,0.0,0,-0.0,,,,,,
69.99816781940106,1.995753144450308,130.12547046791045,184.33069544750873,95.41610149174754,0.0,0,-0.0,,,,,,
70.99816781940106,2.0062015862711036,131.12527052789045,184.31069944630914,96.0,0.0,0,-0.0,,,,,,
71.99816781940106,2.01661825293777,132.12507058787045,184.29070344510956,96.0,0.0,0,-0.0,,,,,,
72.99816781940106,2.0270349196044366,133.12487064785046,184.27070744390997,96.0,0.0,0,-0.0,,,,,,
73.99816781940106,2.037451586271103,134.12467070783046,184.25071144271038,96.0,0.0,0,-0.0,,,,,,
74.99816781940106,2.0478682529377696,135.12447076781046,184.2307154415108,96.0,0.0,0,-0.0,,,,,,
75.99816781940106,2.058284919604436,136.12427082779047,184.2107194403112,96.0,0.0,0,-0.0,,,,,,
76.99816781940106,2.0687015862711027,137.12407088777047,184.19072343911162,96.0,0.0,0,-0.0,,,,,,
77.99816781940106,2.079118252937769,138.12387094775048,184.17072743791203,96.0,0.0,0,-0.0,,,,,,
78.99816781940106,2.0895349196044357,139.12367100773048,184.15073143671245,96.0,0.0,0,-0.0,,,,,,
79.99816781940106,2.0999515862711022,140.12347106771048,184.13073543551286,96.0,0.0,0,-0.0,,,,,,
80.99816781940106,2.1103682529377688,141.1232711276905,184.11073943431327,96.0,0.0,0,-0.0,,,,,,
81.99816781940106,2.1207849196044353,142.1230711876705,184.0907434331137,96.0,0.0,0,-0.0,,,,,,
82.99816781940106,2.131201586271102,143.1228712476505,184.0707474319141,96.0,0.0,0,-0.0,,,,,,
83.99816781940106,2.1416182529377683,144.1226713076305,184.0507514307145,96.0,0.0,0,-0.0,,,,,,
84.99816781940106,2.152034919604435,145.1224713676105,184.03075542951493,96.0,0.0,0,-0.0,,,,,,
85.99816781940106,2.1624515862711013,146.1222714275905,184.01075942831534,96.0,0.0,0,-0.0,,,,,,
86.99816781940106,2.172868252937768,147.1220714875705,183.99076342711575,96.0,0.0,0,-0.0,,,,,,
87.99816781940106,2.1832849196044344,148.1218715475505,183.97076742591616,96.0,0.0,0,-0.0,,,,,,
88.99816781940106,2.193701586271101,149.12167160753052,183.95077142471658,96.0,0.0,0,-0.0,,,,,,
89.99816781940106,2.2041182529377674,150.12147166751052,183.930775423517,96.0,0.0,0,-0.0,,,,,,
90.99816781940106,2.214534919604434,151.12127172749052,183.9107794223174,96.0,0.0,0,-0.0,,,,,,
91.99816781940106,2.2249515862711005,152.12107178747053,183.89078342111782,96.0,0.0,0,-0.0,,,,,,
92.99816781940106,2.235368252937767,153.12087184745053,183.87078741991823,96.0,0.0,0,-0.0,,,,,,
93.99816781940106,2.2457849196044335,154.12067190743053,183.85079141871864,96.0,0.0,0,-0.0,,,,,,
94.99816781940106,2.2562015862711,155.12047196741054,183.83079541751906,96.0,0.0,0,-0.0,,,,,,
95.99816781940106,2.2666182529377665,156.12027202739054,183.81079941631947,96.0,0.0,0,-0.0,,,,,,
96.99816781940106,2.277034919604433,157.12007208737054,183.79080341511988,96.0,0.0,0,-0.0,,,,,,
97.99816781940106,2.2874515862710996,158.11987214735055,183.7708074139203,96.0,0.0,0,-0.0,,,,,,
98.99816781940106,2.297868252937766,159.11967220733055,183.7508114127207,96.0,0.0,0,-0.0,,,,,,
99.99816781940106,2.3082849196044326,160.11947226731056,183.73081541152112,96.0,0.0,0,-0.0,,,,,,
100.99816781940106,2.318701586271099,161.11927232729056,183.71081941032153,96.0,0.0,0,0.0,,,,,,
101.99816781940106,2.3291182529377656,162.11907238727056,183.69082340912195,96.0,0.0,0,0.0,,,,,,
102.99816781940106,2.339534919604432,163.11887244725057,183.67082740792236,96.0,0.0,0,0.0,,,,,,
103.99816781940106,2.3499515862710987,164.11867250723057,183.65083140672277,96.0,0.0,0,0.0,,,,,,
104.99816781940106,2.360368252937765,165.11847256721057,183.6308354055232,96.0,0.0,0,0.0,,,,,,
105.99816781940106,2.3707849196044317,166.11827262719058,183.6108394043236,96.0,0.0,0,0.0,,,,,,
106.99816781940106,2.3812015862710982,167.11807268717058,183.590843403124,96.0,0.0,0,0.0,,,,,,
107.99816781940106,2.3916182529377648,168.11787274715059,183.57084740192442,96.0,0.0,0,0.0,,,,,,
108.99816781940106,2.4020349196044313,169.1176728071306,183.55085140072484,96.0,0.0,0,0.0,,,,,,
109.99816781940106,2.412451586271098,170.1174728671106,183.53085539952525,96.0,0.0,0,0.0,,,,,,
110.99816781940106,2.4228682529377643,171.1172729270906,183.51085939832566,96.0,0.0,0,0.0,,,,,,
111.99816781940106,2.433284919604431,172.1170729870706,183.49086339712608,96.0,0.0,0,0.0,,,,,,
112.99816781940106,2.4437015862710973,173.1168730470506,183.4708673959265,96.0,0.0,0,0.0,,,,,,
113.99816781940106,2.454118252937764,174.1166731070306,183.4508713947269,96.0,0.0,0,0.0,,,,,,
114.99816781940106,2.4645349196044304,175.1164731670106,183.43087539352732,96.0,0.0,0,0.0,,,,,,
115.99816781940106,2.474951586271097,176.11627322699061,183.41087939232773,96.0,0.0,0,0.0,,,,,,
116.99816781940106,2.4853682529377634,177.11607328697062,183.39088339112814,96.0,0.0,0,0.0,,,,,,
117.99816781940106,2.49578491960443,178.11587334695062,183.37088738992855,96.0,0.0,0,0.0,,,,,,
118.99816781940106,2.5062015862710965,179.11567340693063,183.35089138872897,96.0,0.0,0,0.0,,,,,,
119.99816781940106,2.516618252937763,180.11547346691063,183.33089538752938,96.0,0.0,0,0.0,,,,,,
120.99816781940106,2.5270349196044295,181.11527352689063,183.3108993863298,96.0,0.0,0,0.0,,,,,,
121.99816781940106,2.537451586271096,182.11507358687064,183.2909033851302,96.0,0.0,0,0.0,,,,,,
122.99816781940106,2.5478682529377625,183.11487364685064,183.27090738393062,96.0,0.0,0,0.0,,,,,,
123.99816781940106,2.558284919604429,184.11467370683064,183.25091138273103,96.0,0.0,0,0.0,,,,,,
124.99816781940106,2.5687015862710956,185.11447376681065,183.23091538153145,96.0,0.0,0,0.0,,,,,,
125.99816781940106,2.579118252937762,186.11427382679065,183.21091938033186,96.0,0.0,0,0.0,,,,,,
126.99816781940106,2.5895349196044286,187.11407388677065,183.19092337913227,96.0,0.0,0,0.0,,,,,,
127.99816781940106,2.599951586271095,188.11387394675066,183.17092737793268,96.0,0.0,0,0.0,,,,,,
128.99816781940106,2.6103682529377616,189.11367400673066,183.1509313767331,96.0,0.0,0,0.0,,,,,,
129.99816781940106,2.620784919604428,190.11347406671067,183.1309353755335,96.0,0.0,0,0.0,,,,,,
130.99816781940106,2.6312015862710947,191.11327412669067,183.11093937433392,96.0,0.0,0,0.0,,,,,,
131.99816781940106,2.641618252937761,192.11307418667067,183.09094337313434,96.0,0.0,0,0.0,,,,,,
132.99816781940106,2.6520349196044277,193.11287424665068,183.07094737193475,96.0,0.0,0,0.0,,,,,,
133.99816781940106,2.6624515862710942,194.11267430663068,183.05095137073516,96.0,0.0,0,0.0,,,,,,
134.99816781940106,2.6728682529377608,195.11247436661068,183.03095536953558,96.0,0.0,0,0.0,,,,,,
135.99816781940106,2.6832849196044273,196.1122744265907,183.010959368336,96.0,0.0,0,0.0,,,,,,
136.99816781940106,2.693701586271094,197.1120744865707,182.9909633671364,96.0,0.0,0,0.0,,,,,,
137.99816781940106,2.7041182529377603,198.1118745465507,182.97096736593681,96.0,0.0,0,0.0,,,,,,
138.99816781940106,2.714534919604427,199.1116746065307,182.95097136473723,96.0,0.0,0,0.0,,,,,,
139.88784518325727,2.7238465923666486,200.0,183.0,95.08862318824487,0.0,0,0.0,,,,,,
140.88784518325727,2.7344200515302686,201.0,183.0,94.06423294434242,0.0,0,0.0,,,,,,
141.88784518325727,2.7451092895551903,202.0,183.0,93.03984270043998,0.0,0,0.0,,,,,,
142.88784518325727,2.755916870058647,203.0,183.0,92.01545245653753,0.0,0,0.0,,,,,,
143.88784518325727,2.7668454427579054,204.0,183.0,90.99106221263509,0.0,0,0.0,,,,,,
144.88784518325727,2.77789774736952,205.0,183.0,89.96667196873264,0.0,0,0.0,,,,,,
145.88784518325727,2.7890766177318476,206.0,183.0,88.9422817248302,0.0,0,0.0,,,,,,
146.88784518325727,2.8003849861663466,207.0,183.0,87.91789148092775,0.0,0,0.0,,,,,,
147.88784518325727,2.8118258880944427,208.0,183.0,86.8935012370253,0.0,0,0.0,,,,,,
148.88784518325727,2.8234024669281528,209.0,183.0,85.86911099312286,0.0,0,0.0,,,,,,
149.88784518325727,2.8351179792541754,210.0,183.0,84.84472074922041,0.0,0,0.0,,,,,,
150.88784518325727,2.846975800332839,211.0,183.0,83.82033050531797,0.0,0,0.0,,,,,,
151.88784518325727,2.858979429935137,212.0,183.0,82.79594026141552,0.0,0,0.0,,,,,,
152.88784518325727,2.8711324985430995,213.0,183.0,81.77155001751308,0.0,0,0.0,,,,,,
153.88784518325727,2.8834387739409935,214.0,183.0,80.74715977361063,0.0,0,0.0,,,,,,
154.88784518325727,2.8959021682272814,215.0,183.0,79.72276952970819,0.0,0,0.0,,,,,,
155.88784518325727,2.9085267452799894,216.0,183.0,78.69837928580574,0.0,0,0.0,,,,,,
156.88784518325727,2.9213167287111323,217.0,183.0,77.6739890419033,0.0,0,0.0,,,,,,
157.88784518325727,2.934276510349146,218.0,183.0,76.64959879800085,0.0,0,0.0,,,,,,
158.88784518325727,2.947410659291955,219.0,183.0,75.6252085540984,0.0,0,0.0,,,,,,
159.88784518325727,2.960723931577367,220.0,183.0,74.60081831019596,0.0,0,0.0,,,,,,
160.88784518325727,2.9742212805220114,221.0,183.0,73.57642806629352,0.0,0,0.0,,,,,,
161.88784518325727,2.987907867785054,222.0,183.0,72.55203782239107,0.0,0,0.0,,,,,,
162.88784518325727,3.0017890752185328,223.0,183.0,71.52764757848863,0.0,0,0.0,,,,,,
163.88784518325727,3.0158705175723926,224.0,183.0,70.50325733458618,0.0,0,0.0,,,,,,
164.88784518325727,3.0301580561292725,225.0,183.0,69.47886709068374,0.0,0,0.0,,,,,,
165.88784518325727,3.0446578133519115,226.0,183.0,68.45447684678129,0.0,0,0.0,,,,,,
166.88784518325727,3.059376188634774,227.0,183.0,67.43008660287884,0.0,0,0.0,,,,,,
167.88784518325727,3.074319875261317,228.0,183.0,66.4056963589764,0.0,0,0.0,,,,,,
168.88784518325727,3.089495878679361,229.0,183.0,65.38130611507395,0.0,0,0.0,,,,,,
169.88784518325727,3.10491153621945,230.0,183.0,64.35691587117151,0.0,0,0.0,,,,,,
170.88784518325727,3.1205745383951187,231.0,183.0,63.33252562726907,0.0,0,0.0,,,,,,
171.88784518325727,3.1364929519398443,232.0,183.0,62.30813538336663,0.0,0,0.0,,,,,,
172.88784518325727,3.1526752447534125,233.0,183.0,61.283745139464195,0.0,0,0.0,,,,,,
173.88784518325727,3.1691303129508146,234.0,183.0,60.259354895561756,0.0,0,0.0,,,,,,
174.88784518325727,3.1858675102299676,235.0,183.0,59.23496465165932,0.0,0,0.0,,,,,,
175.88784518325727,3.202896679800965,236.0,183.0,58.21057440775688,0.0,0,0.0,,,,,,
176.88784518325727,3.2202281891497204,237.0,183.0,57.18618416385444,0.0,0,0.0,,,,,,
177.88784518325727,3.2378729679434035,238.0,183.0,56.161793919952004,0.0,0,0.0,,,,,,
178.88784518325727,3.2558425494246617,239.0,183.0,55.137403676049566,0.0,0,0.0,,,,,,
179.88784518325727,3.2741491156871896,240.0,183.0,54.11301343214713,0.0,0,0.0,,,,,,
180.88784518325727,3.2928055472777085,241.0,183.0,53.08862318824469,0.0,0,0.0,,,,,,
181.88784518325727,3.31182547763013,242.0,183.0,52.06423294434225,0.0,0,0.0,,,,,,
182.88784518325727,3.3312233529080237,243.0,183.0,51.03984270043981,0.0,0,0.0,,,,,,
183.88784518325727,3.351014497913273,244.0,183.0,50.015452456537375,0.0,0,0.0,,,,,,
184.88784518325727,3.3712151888140984,245.0,183.0,48.99106221263494,0.0,0,0.0,,,,,,
185.88784518325727,3.391842733557036,246.0,183.0,47.9666719687325,0.0,0,0.0,,,,,,
186.88784518325727,3.4129155609581,247.0,183.0,46.94228172483006,0.0,0,0.0,,,,,,
187.88784518325727,3.4344533196220692,248.0,183.0,45.91789148092762,0.0,0,0.0,,,,,,
188.88784518325727,3.4564769880202815,249.0,183.0,44.893501237025184,0.0,0,-0.0,,,,,,
189.88784518325727,3.479008997272266,250.0,183.0,43.869110993122746,0.0,0,-0.0,,,,,,
190.88784518325727,3.502073368432137,251.0,183.0,42.84472074922031,0.0,0,-0.0,,,,,,
191.88784518325727,3.5256958663857163,252.0,183.0,41.82033050531787,0.0,0,-0.0,,,,,,
192.88784518325727,3.5499041728299394,253.0,183.0,40.79594026141543,0.0,0,-0.0,,,,,,
193.88784518325727,3.5747280812460502,254.0,183.0,39.77155001751299,0.0,0,-0.0,,,,,,
194.88784518325727,3.600199717309868,255.0,183.0,38.747159773610555,0.0,0,-0.0,,,,,,
195.88784518325727,3.6263537888281894,256.0,183.0,37.72276952970812,0.0,0,-0.0,,,,,,
196.88784518325727,3.6532278700783714,257.0,183.0,36.69837928580568,0.0,0,-0.0,,,,,,
197.88784518325727,3.6808627263945803,258.0,183.0,35.67398904190324,0.0,0,-0.0,,,,,,
198.88784518325727,3.7093026860359046,259.0,183.0,34.6495987980008,0.0,0,-0.0,,,,,,
199.88784518325727,3.7385960678492847,260.0,183.0,33.625208554098364,0.0,0,-0.0,,,,,,
200.88784518325727,3.7687956750837373,261.0,183.0,32.600818310195926,0.0,0,-0.0,,,,,,
201.88784518325727,3.799959368026672,262.0,183.0,31.576428066293488,0.0,0,-0.0,,,,,,
202.88784518325727,3.832150731057966,263.0,183.0,30.55203782239105,0.0,0,-0.0,,,,,,
