Distance (in),Time (s),X (in),Y (in),Velocity (in/s),Orientation (deg),Touch,Rotational Velocity (deg/s),Way X (in),Way Y (in),Way Velocity (in/s),Way Orientation (deg),Way Turn Radius (in),Touch this Point
0.0,0.0,74.0,162.60000000000002,12.0,0.0,0,0.0,74.0,162.60000000000002,12.0,0.0,3.0,0.0
1.000000000000009,0.0797100271984106,74.7838012480083,161.97898824196267,13.090946149368492,0.0,0,0.0,100.0,142.0,48.0,0.0,20.0,0.0
2.000000000000018,0.15304306159472403,75.5676024960166,161.3579764839253,14.181892298736983,0.0,0,0.0,200.0,142.0,96.0,0.0,3.0,0.0
3.0000000000000275,0.22094386901305083,76.3514037440249,160.73696472588796,15.272838448105475,0.0,0,0.0,282.0,142.0,12.0,0.0,3.0,0.0
4.000000000000036,0.28416174144901163,77.13520499203321,160.1159529678506,16.363784597473966,0.0,0,0.0,,,,,,
5.000000000000045,0.3433009431448111,77.91900624004151,159.49494120981325,17.454730746842458,0.0,0,0.0,,,,,,
6.000000000000054,0.39885586962870423,78.70280748804981,158.8739294517759,18.54567689621095,0.0,0,0.0,,,,,,
7.000000000000063,0.45123616110012044,79.48660873605812,158.25291769373854,19.63662304557944,0.0,0,-0.0,,,,,,
8.000000000000073,0.5007850282763087,80.27040998406642,157.63190593570118,20.727569194947932,0.0,0,-0.0,,,,,,
9.000000000000082,0.5477928792139029,81.05421123207472,157.01089417766383,21.818515344316424,0.0,0,-0.0,,,,,,
10.00000000000009,0.5925076224548893,81.83801248008302,156.38988241962647,22.909461493684915,0.0,0,-0.0,,,,,,
11.0000000000001,0.6351425740504733,82.62181372809133,155.76887066158912,24.000407643053407,0.0,0,-0.0,,,,,,
12.000000000000108,0.6758826074393496,83.40561497609963,155.14785890355176,25.0913537924219,0.0,0,-0.0,,,,,,
13.000000000000117,0.7148889948204291,84.18941622410793,154.5268471455144,26.18229994179039,0.0,0,-0.0,,,,,,
14.000000000000126,0.7523032604752453,84.97321747211623,153.90583538747705,27.27324609115888,0.0,0,-0.0,,,,,,
15.000000000000135,0.7882502785258767,85.75701872012453,153.2848236294397,28.364192240527373,0.0,0,-0.0,,,,,,
16.000000000000146,0.822840786202001,86.54081996813284,152.66381187140234,29.45513838989587,0.0,0,0.0,,,,,,
17.000000000000156,0.8561734401440931,87.32462121614114,152.042800113365,30.546084539264363,0.0,0,0.0,,,,,,
18.000000000000167,0.8883365119469474,88.10842246414944,151.42178835532764,31.63703068863286,0.0,0,0.0,,,,,,
19.000000000000178,0.919409296319301,88.89222371215774,150.80077659729028,32.727976838001354,0.0,0,0.0,,,,,,
20.00000000000019,0.9494632883947893,89.67602496016605,150.17976483925293,33.818922987369845,0.0,0,0.0,,,,,,
21.0000000000002,0.97856317416593,90.45982620817435,149.55875308121557,34.90986913673834,0.0,0,0.0,,,,,,
22.00000000000021,1.0067676685418958,91.24362745618265,148.93774132317822,36.00081528610683,0.0,0,0.0,,,,,,
23.00000000000022,1.0341302283216427,92.02742870419095,148.31672956514086,37.09176143547532,0.0,0,0.0,,,,,,
24.00000000000023,1.0606996618364797,92.81122995219926,147.6957178071035,38.18270758484381,0.0,0,0.0,,,,,,
25.00000000000024,1.0865206527265845,93.59503120020756,147.07470604906615,39.2736537342123,0.0,0,0.0,,,,,,
26.000000000000252,1.1116342119665774,94.37883244821586,146.4536942910288,40.364599883580794,0.0,0,0.0,,,,,,
26.99950400015244,1.1360661070485667,95.1718545081509,145.84531590648788,41.45500492382522,0.0,0,0.0,,,,,,
27.999399836740942,1.1598729120398583,95.99398779920884,145.27620384743338,42.545837436521026,0.0,0,0.0,,,,,,
28.999295673329424,1.183077060234645,96.84353738566578,144.74889256917564,43.63666994921681,0.0,0,0.0,,,,,,
29.999191509917903,1.2057083101927455,97.71837983599248,144.2647000752919,44.727502461912586,0.0,0,0.0,,,,,,
30.9990873465064,1.2277942694128918,98.61632849967225,143.82483659485425,45.81833497460838,0.0,0,0.0,,,,,,
31.9989831830949,1.2493605967708232,99.53513897268851,143.43040155748733,46.90916748730419,0.0,0,0.0,,,,,,
32.9988790196834,1.2703172993025735,100.47251470736599,143.0823808453668,48.51575301949904,0.0,0,0.0,,,,,,
33.99877485627189,1.2905913297640572,101.4261127525438,142.78164432902724,50.12233855169387,0.0,0,0.0,,,,,,
34.998670692860394,1.3102257615956205,102.39354960973328,142.52894369313896,51.72892408388872,0.0,0,0.0,,,,,,
35.99856652944889,1.3292597163103788,103.37240719062284,142.32491055768773,53.335509616083556,0.0,0,0.0,,,,,,
36.99846236603738,1.3477288325928178,104.3602388610394,142.17005489925378,54.94209514827839,0.0,0,0.0,,,,,,
37.99835820262587,1.3656656678001415,105.35457555625975,142.06476377633595,56.548680680473225,0.0,0,0.0,,,,,,
38.99835820262587,1.3831018339999117,106.35457555625975,142.06476377633595,58.15543357753127,0.0,0,0.0,,,,,,
39.99835820262587,1.4000628276081273,107.35457555625975,142.06476377633595,59.76218647458931,0.0,0,0.0,,,,,,
40.99835820262587,1.4165738604745994,108.35457555625975,142.06476377633595,61.36893937164736,0.0,0,0.0,,,,,,
41.99835820262587,1.4326581897585904,109.35457555625975,142.06476377633595,62.9756922687054,0.0,0,0.0,,,,,,
42.99835820262587,1.448337314902821,110.35457555625975,142.06476377633595,64.58244516576345,0.0,0,0.0,,,,,,
43.99835820262587,1.4636311504058592,111.35457555625975,142.06476377633595,66.18919806282149,0.0,0,0.0,,,,,,
44.99835820262587,1.4785581778756063,112.35457555625975,142.06476377633595,67.79595095987953,0.0,0,0.0,,,,,,
45.99835820262587,1.4931355802755812,113.35457555625975,142.06476377633595,69.40270385693758,0.0,0,0.0,,,,,,
46.99835820262587,1.5073793608092474,114.35457555625975,142.06476377633595,71.00945675399562,0.0,0,0.0,,,,,,
47.99835820262587,1.5213044485046434,115.35457555625975,142.06476377633595,72.61620965105367,0.0,0,0.0,,,,,,
48.99835820262587,1.534924792245667,116.35457555625975,142.06476377633595,74.22296254811171,0.0,0,0.0,,,,,,
49.99835820262587,1.5482534447345586,117.35457555625975,142.06476377633595,75.82971544516975,0.0,0,0.0,,,,,,
50.99835820262587,1.5613026376522494,118.35457555625975,142.06476377633595,77.4364683422278,0.0,0,0.0,,,,,,
51.99835820262587,1.5740838491011522,119.35457555625975,142.06476377633595,79.04322123928584,0.0,0,0.0,,,,,,
52.99835820262587,1.5866078642621966,120.35457555625975,142.06476377633595,80.64997413634389,0.0,0,0.0,,,,,,
53.99835820262587,1.5988848300692449,121.35457555625975,142.06476377633595,82.25672703340193,0.0,0,0.0,,,,,,
54.99835820262587,1.6109243045952735,122.35457555625975,142.06476377633595,83.86347993045997,0.0,0,0.0,,,,,,
55.99835820262587,1.6227353017524582,123.35457555625975,142.06476377633595,85.47023282751802,0.0,0,0.0,,,,,,
56.99835820262587,1.6343263318298058,124.35457555625975,142.06476377633595,87.07698572457606,0.0,0,0.0,,,,,,
57.99835820262587,1.6457054383249545,125.35457555625975,142.06476377633595,88.6837386216341,0.0,0,0.0,,,,,,
58.99835820262587,1.6568802314693747,126.35457555625975,142.06476377633595,90.29049151869215,0.0,0,0.0,,,,,,
59.99835820262587,1.6678579187969107,127.35457555625975,142.06476377633595,91.8972444157502,0.0,0,-0.0,,,,,,
60.99835820262589,1.6786453330631441,128.35457555625976,142.06476377633595,93.50399731280827,0.0,0,-0.0,,,,,,
61.99835820262589,1.689248957786389,129.35457555625976,142.06476377633595,95.11075020986631,0.0,0,-0.0,,,,,,
62.99835820262589,1.6997140938282063,130.35457555625976,142.06476377633595,96.0,0.0,0,-0.0,,,,,,
63.99835820262589,1.710130760494873,131.35457555625976,142.06476377633595,96.0,0.0,0,-0.0,,,,,,
64.9983582026259,1.7205474271615397,132.35457555625976,142.06476377633595,96.0,0.0,0,-0.0,,,,,,
65.9983582026259,1.7309640938282065,133.35457555625976,142.06476377633595,96.0,0.0,0,-0.0,,,,,,
66.9983582026259,1.7413807604948732,134.35457555625976,142.06476377633595,96.0,0.0,0,-0.0,,,,,,
67.9983582026259,1.75179742716154,135.35457555625976,142.06476377633595,96.0,0.0,0,-0.0,,,,,,
68.9983582026259,1.7622140938282067,136.35457555625976,142.06476377633595,96.0,0.0,0,-0.0,,,,,,
69.9983582026259,1.7726307604948734,137.35457555625976,142.06476377633595,96.0,0.0,0,-0.0,,,,,,
70.9983582026259,1.7830474271615402,138.35457555625976,142.06476377633595,96.0,0.0,0,-0.0,,,,,,
71.9983582026259,1.793464093828207,139.35457555625976,142.06476377633595,96.0,0.0,0,-0.0,,,,,,
72.9983582026259,1.8038807604948737,140.35457555625976,142.06476377633595,96.0,0.0,0,-0.0,,,,,,
73.9983582026259,1.8142974271615404,141.35457555625976,142.06476377633595,96.0,0.0,0,-0.0,,,,,,
74.9983582026259,1.8247140938282072,142.35457555625976,142.06476377633595,96.0,0.0,0,-0.0,,,,,,
75.9983582026259,1.835130760494874,143.35457555625976,142.06476377633595,96.0,0.0,0,-0.0,,,,,,
76.9983582026259,1.8455474271615406,144.35457555625976,142.06476377633595,96.0,0.0,0,-0.0,,,,,,
77.9983582026259,1.8559640938282074,145.35457555625976,142.06476377633595,96.0,0.0,0,-0.0,,,,,,
78.9983582026259,1.8663807604948741,146.35457555625976,142.06476377633595,96.0,0.0,0,-0.0,,,,,,
79.9983582026259,1.8767974271615409,147.35457555625976,142.06476377633595,96.0,0.0,0,-0.0,,,,,,
80.9983582026259,1.8872140938282076,148.35457555625976,142.06476377633595,96.0,0.0,0,-0.0,,,,,,
81.9983582026259,1.8976307604948743,149.35457555625976,142.06476377633595,96.0,0.0,0,-0.0,,,,,,
82.9983582026259,1.908047427161541,150.35457555625976,142.06476377633595,96.0,0.0,0,-0.0,,,,,,
83.9983582026259,1.9184640938282078,151.35457555625976,142.06476377633595,96.0,0.0,0,-0.0,,,,,,
84.9983582026259,1.9288807604948746,152.35457555625976,142.06476377633595,96.0,0.0,0,-0.0,,,,,,
85.9983582026259,1.9392974271615413,153.35457555625976,142.06476377633595,96.0,0.0,0,-0.0,,,,,,
86.9983582026259,1.949714093828208,154.35457555625976,142.06476377633595,96.0,0.0,0,-0.0,,,,,,
87.9983582026259,1.9601307604948748,155.35457555625976,142.06476377633595,96.0,0.0,0,-0.0,,,,,,
88.9983582026259,1.9705474271615415,156.35457555625976,142.06476377633595,96.0,0.0,0,-0.0,,,,,,
89.9983582026259,1.9809640938282083,157.35457555625976,142.06476377633595,96.0,0.0,0,-0.0,,,,,,
90.9983582026259,1.991380760494875,158.35457555625976,142.06476377633595,96.0,0.0,0,-0.0,,,,,,
91.9983582026259,2.0017974271615415,159.35457555625976,142.06476377633595,96.0,0.0,0,-0.0,,,,,,
92.9983582026259,2.012214093828208,160.35457555625976,142.06476377633595,96.0,0.0,0,0.0,,,,,,
93.9983582026259,2.0226307604948746,161.35457555625976,142.06476377633595,96.0,0.0,0,0.0,,,,,,
94.9983582026259,2.033047427161541,162.35457555625976,142.06476377633595,96.0,0.0,0,0.0,,,,,,
95.9983582026259,2.0434640938282076,163.35457555625976,142.06476377633595,96.0,0.0,0,0.0,,,,,,
96.9983582026259,2.053880760494874,164.35457555625976,142.06476377633595,96.0,0.0,0,0.0,,,,,,
97.9983582026259,2.0642974271615406,165.35457555625976,142.06476377633595,96.0,0.0,0,0.0,,,,,,
98.9983582026259,2.074714093828207,166.35457555625976,142.06476377633595,96.0,0.0,0,0.0,,,,,,
99.9983582026259,2.0851307604948737,167.35457555625976,142.06476377633595,96.0,0.0,0,0.0,,,,,,
100.9983582026259,2.09554742716154,168.35457555625976,142.06476377633595,96.0,0.0,0,0.0,,,,,,
101.9983582026259,2.1059640938282067,169.35457555625976,142.06476377633595,96.0,0.0,0,0.0,,,,,,
102.9983582026259,2.1163807604948732,170.35457555625976,142.06476377633595,96.0,0.0,0,0.0,,,,,,
103.9983582026259,2.1267974271615397,171.35457555625976,142.06476377633595,96.0,0.0,0,0.0,,,,,,
104.9983582026259,2.1372140938282063,172.35457555625976,142.06476377633595,96.0,0.0,0,0.0,,,,,,
105.9983582026259,2.147630760494873,173.35457555625976,142.06476377633595,96.0,0.0,0,0.0,,,,,,
106.9983582026259,2.1580474271615393,174.35457555625976,142.06476377633595,96.0,0.0,0,0.0,,,,,,
107.9983582026259,2.168464093828206,175.35457555625976,142.06476377633595,96.0,0.0,0,0.0,,,,,,
108.9983582026259,2.1788807604948723,176.35457555625976,142.06476377633595,96.0,0.0,0,0.0,,,,,,
109.9983582026259,2.189297427161539,177.35457555625976,142.06476377633595,96.0,0.0,0,0.0,,,,,,
110.9983582026259,2.1997140938282054,178.35457555625976,142.06476377633595,96.0,0.0,0,0.0,,,,,,
111.9983582026259,2.210130760494872,179.35457555625976,142.06476377633595,96.0,0.0,0,0.0,,,,,,
112.9983582026259,2.2205474271615384,180.35457555625976,142.06476377633595,96.0,0.0,0,0.0,,,,,,
113.9983582026259,2.230964093828205,181.35457555625976,142.06476377633595,96.0,0.0,0,0.0,,,,,,
114.9983582026259,2.2413807604948714,182.35457555625976,142.06476377633595,96.0,0.0,0,0.0,,,,,,
115.9983582026259,2.251797427161538,183.35457555625976,142.06476377633595,96.0,0.0,0,0.0,,,,,,
116.9983582026259,2.2622140938282045,184.35457555625976,142.06476377633595,96.0,0.0,0,0.0,,,,,,
117.9983582026259,2.272630760494871,185.35457555625976,142.06476377633595,96.0,0.0,0,0.0,,,,,,
118.9983582026259,2.2830474271615375,186.35457555625976,142.06476377633595,96.0,0.0,0,0.0,,,,,,
119.9983582026259,2.293464093828204,187.35457555625976,142.06476377633595,96.0,0.0,0,0.0,,,,,,
120.9983582026259,2.3038807604948706,188.35457555625976,142.06476377633595,96.0,0.0,0,0.0,,,,,,
121.9983582026259,2.314297427161537,189.35457555625976,142.06476377633595,96.0,0.0,0,0.0,,,,,,
122.9983582026259,2.3247140938282036,190.35457555625976,142.06476377633595,96.0,0.0,0,0.0,,,,,,
123.9983582026259,2.33513076049487,191.35457555625976,142.06476377633595,96.0,0.0,0,0.0,,,,,,
124.9983582026259,2.3455474271615366,192.35457555625976,142.06476377633595,96.0,0.0,0,0.0,,,,,,
125.9983582026259,2.355964093828203,193.35457555625976,142.06476377633595,96.0,0.0,0,0.0,,,,,,
126.9983582026259,2.3663807604948697,194.35457555625976,142.06476377633595,96.0,0.0,0,0.0,,,,,,
127.9983582026259,2.376797427161536,195.35457555625976,142.06476377633595,96.0,0.0,0,0.0,,,,,,
128.9983582026259,2.3872140938282027,196.35457555625976,142.06476377633595,96.0,0.0,0,0.0,,,,,,
129.9983582026259,2.3976307604948692,197.35457555625976,142.06476377633595,96.0,0.0,0,0.0,,,,,,
130.9983582026259,2.4080474271615357,198.35457555625976,142.06476377633595,96.0,0.0,0,0.0,,,,,,
131.9983582026259,2.4184640938282023,199.35457555625976,142.06476377633595,96.0,0.0,0,0.0,,,,,,
132.6470238016079,2.4252444932201622,200.0,142.0,95.33551328884771,0.0,0,0.0,,,,,,
133.6470238016079,2.4357904224212468,201.0,142.0,94.31112304494526,0.0,0,0.0,,,,,,
134.6470238016079,2.446451525081407,202.0,142.0,93.28673280104282,0.0,0,0.0,,,,,,
135.6470238016079,2.457230344626259,203.0,142.0,92.26234255714037,0.0,0,0.0,,,,,,
136.6470238016079,2.4681295096734477,204.0,142.0,91.23795231323793,0.0,0,0.0,,,,,,
137.6470238016079,2.47915173788028,205.0,142.0,90.21356206933548,0.0,0,0.0,,,,,,
138.6470238016079,2.4902998400110596,206.0,142.0,89.18917182543304,0.0,0,0.0,,,,,,
139.6470238016079,2.5015767242393503,207.0,142.0,88.16478158153059,0.0,0,0.0,,,,,,
140.6470238016079,2.5129854007016377,208.0,142.0,87.14039133762815,0.0,0,0.0,,,,,,
141.6470238016079,2.5245289863202314,209.0,142.0,86.1160010937257,0.0,0,0.0,,,,,,
142.6470238016079,2.5362107099147373,210.0,142.0,85.09161084982325,0.0,0,0.0,,,,,,
143.6470238016079,2.5480339176230693,211.0,142.0,84.06722060592081,0.0,0,0.0,,,,,,
144.6470238016079,2.56000207865477,212.0,142.0,83.04283036201836,0.0,0,0.0,,,,,,
145.6470238016079,2.5721187914013903,213.0,142.0,82.01844011811592,0.0,0,0.0,,,,,,
146.6470238016079,2.584387789930853,214.0,142.0,80.99404987421347,0.0,0,0.0,,,,,,
147.6470238016079,2.5968129508951248,215.0,142.0,79.96965963031103,0.0,0,0.0,,,,,,
148.6470238016079,2.609398300883165,216.0,142.0,78.94526938640858,0.0,0,0.0,,,,,,
149.6470238016079,2.6221480242540514,217.0,142.0,77.92087914250614,0.0,0,0.0,,,,,,
150.6470238016079,2.6350664714884013,218.0,142.0,76.89648889860369,0.0,0,0.0,,,,,,
151.6470238016079,2.6481581680998016,219.0,142.0,75.87209865470125,0.0,0,0.0,,,,,,
152.6470238016079,2.6614278241519145,220.0,142.0,74.8477084107988,0.0,0,0.0,,,,,,
153.6470238016079,2.674880344431344,221.0,142.0,73.82331816689636,0.0,0,0.0,,,,,,
154.6470238016079,2.688520839331237,222.0,142.0,72.79892792299391,0.0,0,0.0,,,,,,
155.6470238016079,2.7023546365060565,223.0,142.0,71.77453767909147,0.0,0,0.0,,,,,,
156.6470238016079,2.716387293364034,224.0,142.0,70.75014743518902,0.0,0,0.0,,,,,,
157.6470238016079,2.730624610470608,225.0,142.0,69.72575719128658,0.0,0,0.0,,,,,,
158.6470238016079,2.745072645943746,226.0,142.0,68.70136694738413,0.0,0,0.0,,,,,,
159.6470238016079,2.7597377309305537,227.0,142.0,67.67697670348169,0.0,0,0.0,,,,,,
160.6470238016079,2.774626486264123,228.0,142.0,66.65258645957924,0.0,0,0.0,,,,,,
161.6470238016079,2.7897458404102946,229.0,142.0,65.6281962156768,0.0,0,0.0,,,,,,
162.6470238016079,2.8051030488260977,230.0,142.0,64.60380597177435,0.0,0,0.0,,,,,,
163.6470238016079,2.820705714865233,231.0,142.0,63.57941572787191,0.0,0,0.0,,,,,,
164.6470238016079,2.8365618123813827,232.0,142.0,62.55502548396947,0.0,0,0.0,,,,,,
165.6470238016079,2.852679710197537,233.0,142.0,61.530635240067035,0.0,0,0.0,,,,,,
166.6470238016079,2.8690681986293005,234.0,142.0,60.5062449961646,0.0,0,0.0,,,,,,
167.6470238016079,2.8857365182726094,235.0,142.0,59.48185475226216,0.0,0,0.0,,,,,,
168.6470238016079,2.902694391291873,236.0,142.0,58.45746450835972,0.0,0,0.0,,,,,,
169.6470238016079,2.919952055473767,237.0,142.0,57.43307426445728,0.0,0,0.0,,,,,,
170.6470238016079,2.937520301345311,238.0,142.0,56.408684020554844,0.0,0,0.0,,,,,,
171.6470238016079,2.955410512693183,239.0,142.0,55.384293776652406,0.0,0,0.0,,,,,,
172.6470238016079,2.9736347108652414,240.0,142.0,54.35990353274997,0.0,0,0.0,,,,,,
173.6470238016079,2.9922056032859756,241.0,142.0,53.33551328884753,0.0,0,0.0,,,,,,
174.6470238016079,3.0111366366762007,242.0,142.0,52.31112304494509,0.0,0,0.0,,,,,,
175.6470238016079,3.03044205553519,243.0,142.0,51.28673280104265,0.0,0,0.0,,,,,,
176.6470238016079,3.050136966522273,244.0,142.0,50.262342557140215,0.0,0,0.0,,,,,,
177.6470238016079,3.0702374094667433,245.0,142.0,49.23795231323778,0.0,0,0.0,,,,,,
178.6470238016079,3.090760435842182,246.0,142.0,48.21356206933534,0.0,0,0.0,,,,,,
179.6470238016079,3.11172419566699,247.0,142.0,47.1891718254329,0.0,0,0.0,,,,,,
180.6470238016079,3.133148033940676,248.0,142.0,46.16478158153046,0.0,0,-0.0,,,,,,
181.6470238016079,3.155052597899728,249.0,142.0,45.140391337628024,0.0,0,-0.0,,,,,,
182.6470238016079,3.1774599565831765,250.0,142.0,44.116001093725586,0.0,0,-0.0,,,,,,
183.6470238016079,3.200393734443011,251.0,142.0,43.09161084982315,0.0,0,-0.0,,,,,,
184.6470238016079,3.2238792610268203,252.0,142.0,42.06722060592071,0.0,0,-0.0,,,,,,
185.6470238016079,3.2479437391098807,253.0,142.0,41.04283036201827,0.0,0,-0.0,,,,,,
186.6470238016079,3.2726164340744894,254.0,142.0,40.018440118115834,0.0,0,-0.0,,,,,,
187.6470238016079,3.297928887842168,255.0,142.0,38.994049874213395,0.0,0,-0.0,,,,,,
188.6470238016079,3.323915161280332,256.0,142.0,37.96965963031096,0.0,0,-0.0,,,,,,
189.6470238016079,3.350612109755764,257.0,142.0,36.94526938640852,0.0,0,-0.0,,,,,,
190.6470238016079,3.378059697426826,258.0,142.0,35.92087914250608,0.0,0,-0.0,,,,,,
191.6470238016079,3.406301356998797,259.0,142.0,34.89648889860364,0.0,0,-0.0,,,,,,
192.6470238016079,3.435384403069065,260.0,142.0,33.872098654701205,0.0,0,-0.0,,,,,,
193.6470238016079,3.4653605089357464,261.0,142.0,32.84770841079877,0.0,0,-0.0,,,,,,
194.6470238016079,3.4962862589328836,262.0,142.0,31.82331816689633,0.0,0,-0.0,,,,,,
195.6470238016079,3.5282237911179974,263.0,142.0,30.79892792299389,0.0,0,-0.0,,,,,,
196.6470238016079,3.5612415486479736,264.0,142.0,29.774537679091452,0.0,0,-0.0,,,,,,
197.6470238016079,3.5954151626724595,265.0,142.0,28.750147435189014,0.0,0,-0.0,,,,,,
198.6470238016079,3.630828495371205,266.0,142.0,27.725757191286576,0.0,0,-0.0,,,,,,
199.6470238016079,3.667574879304781,267.0,142.0,26.701366947384138,0.0,0,-0.0,,,,,,
200.6470238016079,3.7057585991515034,268.0,142.0,25.6769767034817,0.0,0,-0.0,,,,,,
201.6470238016079,3.7454966750318817,269.0,142.0,24.65258645957926,0.0,0,0.0,,,,,,
202.6470238016079,3.7869210242072526,270.0,142.0,23.628196215676823,0.0,0,0.0,,,,,,
203.6470238016079,3.8301811017589635,271.0,142.0,22.603805971774385,0.0,0,0.0,,,,,,
204.6470238016079,3.8754471535103687,272.0,142.0,21.579415727871947,0.0,0,0.0,,,,,,
205.6470238016079,3.9229142598128943,273.0,142.0,20.55502548396951,0.0,0,0.0,,,,,,
