Distance (in),Time (s),X (in),Y (in),Velocity (in/s),Orientation (deg),Touch,Rotational Velocity (deg/s),Way X (in),Way Y (in),Way Velocity (in/s),Way Orientation (deg),Way Turn Radius (in),Touch this Point
0.0,0.0,74.0,194.0,12.0,0.0,0,0.0,74.0,194.0,12.0,0.0,3.0,0
0.9999999999999962,0.0775577319431341,74.98521175481967,193.82865882524877,13.787241966621808,0.0,0,0.0,120.0,186.0,96.0,0.0,20.0,0
1.9999999999999925,0.14567361882324284,75.97042350963935,193.65731765049753,15.574483933243616,0.0,0,0.0,220.0,186.0,96.0,0.0,3.0,0
2.9999999999999885,0.20639705998827626,76.95563526445902,193.4859764757463,17.361725899865423,0.0,0,0.0,282.0,186.00000000000003,12.0,0.0,3.0,0.0
3.999999999999985,0.2611755315450984,77.94084701927869,193.31463530099506,19.148967866487233,0.0,0,0.0,,,,,,
4.999999999999981,0.3110692856650942,78.92605877409837,193.14329412624383,20.93620983310904,0.0,0,0.0,,,,,,
5.999999999999978,0.3568781610709364,79.91127052891804,192.9719529514926,22.723451799730846,0.0,0,0.0,,,,,,
6.999999999999974,0.3992204110689144,80.89648228373771,192.80061177674136,24.510693766352652,0.0,0,0.0,,,,,,
7.999999999999971,0.43858380306960754,81.88169403855738,192.62927060199013,26.29793573297446,0.0,0,-0.0,,,,,,
8.999999999999966,0.47535992480599504,82.86690579337706,192.4579294272389,28.085177699596265,0.0,0,-0.0,,,,,,
9.999999999999963,0.5098679115221537,83.85211754819673,192.28658825248766,29.87241966621807,0.0,0,-0.0,,,,,,
10.99999999999996,0.5423712814354775,84.8373293030164,192.11524707773643,31.659661632839878,0.0,0,-0.0,,,,,,
11.999999999999956,0.5730901496919114,85.82254105783608,191.9439059029852,33.446903599461685,0.0,0,-0.0,,,,,,
12.999999999999952,0.6022102639635979,86.80775281265575,191.77256472823396,35.23414556608349,0.0,0,-0.0,,,,,,
13.999999999999948,0.6298898050897503,87.79296456747542,191.60122355348273,37.0213875327053,0.0,0,-0.0,,,,,,
14.999999999999945,0.6562645848706271,88.7781763222951,191.4298823787315,38.808629499327104,0.0,0,-0.0,,,,,,
15.999999999999941,0.6814520739384647,89.76338807711477,191.25854120398026,40.59587146594891,0.0,0,-0.0,,,,,,
16.999999999999936,0.7055545620858664,90.74859983193444,191.08720002922902,42.38311343257072,0.0,0,-0.0,,,,,,
17.999999999999932,0.7286616660182051,91.73381158675411,190.9158588544778,44.17035539919252,0.0,0,-0.0,,,,,,
18.99999999999993,0.7508523398174276,92.71902334157379,190.74451767972656,45.95759736581433,0.0,0,-0.0,,,,,,
19.999999999999925,0.772196501938212,93.70423509639346,190.57317650497532,47.744839332436136,0.0,0,0.0,,,,,,
20.999999999999922,0.7927563632806205,94.68944685121313,190.4018353302241,49.53208129905794,0.0,0,0.0,,,,,,
21.99999999999992,0.8125875199078558,95.6746586060328,190.23049415547285,51.31932326567975,0.0,0,0.0,,,,,,
22.999999999999915,0.8317398587461187,96.65987036085248,190.05915298072162,53.106565232301556,0.0,0,0.0,,,,,,
23.99999999999991,0.850258313404908,97.64508211567215,189.8878118059704,54.89380719892336,0.0,0,0.0,,,,,,
24.999999999999908,0.8681834989275926,98.63029387049183,189.71647063121915,56.68104916554517,0.0,0,0.0,,,,,,
25.999999999999904,0.885552248021848,99.6155056253115,189.54512945646792,58.468291132166975,0.0,0,0.0,,,,,,
26.9999999999999,0.9023980665671583,100.60071738013117,189.37378828171668,60.25553309878878,0.0,0,0.0,,,,,,
27.999999999999897,0.9187515225554027,101.58592913495085,189.20244710696545,62.04277506541059,0.0,0,0.0,,,,,,
28.999999999999893,0.9346405798065656,102.57114088977052,189.03110593221422,63.830017032032394,0.0,0,0.0,,,,,,
29.99999999999989,0.9500908856092607,103.55635264459019,188.85976475746298,65.61725899865421,0.0,0,0.0,,,,,,
30.999999999999886,0.9651260197147056,104.54156439940986,188.68842358271175,67.40450096527601,0.0,0,0.0,,,,,,
31.999999999999883,0.9797677107520195,105.52677615422954,188.51708240796052,69.19174293189782,0.0,0,0.0,,,,,,
32.99999999999988,0.9940360250495642,106.51198790904921,188.34574123320928,70.97898489851963,0.0,0,0.0,,,,,,
33.99999999999987,1.0079495319793692,107.49719966386888,188.17440005845805,72.76622686514143,0.0,0,0.0,,,,,,
34.999999999999865,1.0215254492424266,108.48241141868856,188.0030588837068,74.55346883176324,0.0,0,0.0,,,,,,
35.99999999999986,1.034779770945902,109.46762317350823,187.83171770895558,76.34071079838505,0.0,0,0.0,,,,,,
36.99999999999985,1.0477273808614833,110.4528349283279,187.66037653420435,78.12795276500685,0.0,0,0.0,,,,,,
37.999999999999844,1.060382152875832,111.43804668314758,187.4890353594531,79.91519473162866,0.0,0,0.0,,,,,,
38.99999999999984,1.0727570403327598,112.42325843796725,187.31769418470188,81.70243669825047,0.0,0,0.0,,,,,,
39.99999999999983,1.0848641557093237,113.40847019278692,187.14635300995064,83.48967866487227,0.0,0,0.0,,,,,,
40.99999999999982,1.0967148418542039,114.3936819476066,186.9750118351994,85.27692063149408,0.0,0,0.0,,,,,,
41.999999999999815,1.1083197358383932,115.37889370242627,186.80367066044818,87.06416259811589,0.0,0,0.0,,,,,,
42.99999999999981,1.1196888263188762,116.36410545724594,186.63232948569694,88.85140456473769,0.0,0,0.0,,,,,,
43.9999999999998,1.1308315051904154,117.34931721206561,186.4609883109457,90.6386465313595,0.0,0,0.0,,,,,,
44.999999943608955,1.141756613584561,118.33453437171443,186.28967854604062,92.42588839719723,0.0,0,0.0,,,,,,
45.99989578019745,1.1524713809529785,119.32387853203458,186.14479991936506,94.2129441985986,0.0,0,0.0,,,,,,
46.99979161678595,1.1630124885815343,120.31922718318091,186.04954895250276,95.5006744878836,0.0,0,0.0,,,,,,
47.99979161678595,1.173456316026782,121.31922718318091,186.04954895250276,96.0,0.0,0,0.0,,,,,,
48.99979161678595,1.1838729826934486,122.31922718318091,186.04954895250276,96.0,0.0,0,0.0,,,,,,
49.99979161678595,1.1942896493601154,123.31922718318091,186.04954895250276,96.0,0.0,0,0.0,,,,,,
50.99979161678595,1.2047063160267821,124.31922718318091,186.04954895250276,96.0,0.0,0,0.0,,,,,,
51.99979161678595,1.2151229826934489,125.31922718318091,186.04954895250276,96.0,0.0,0,0.0,,,,,,
52.99979161678595,1.2255396493601156,126.31922718318091,186.04954895250276,96.0,0.0,0,0.0,,,,,,
53.99979161678595,1.2359563160267824,127.31922718318091,186.04954895250276,96.0,0.0,0,0.0,,,,,,
54.99979161678595,1.246372982693449,128.3192271831809,186.04954895250276,96.0,0.0,0,0.0,,,,,,
55.99979161678595,1.2567896493601158,129.3192271831809,186.04954895250276,96.0,0.0,0,0.0,,,,,,
56.99979161678595,1.2672063160267826,130.3192271831809,186.04954895250276,96.0,0.0,0,0.0,,,,,,
57.99979161678595,1.2776229826934493,131.3192271831809,186.04954895250276,96.0,0.0,0,0.0,,,,,,
58.99979161678595,1.288039649360116,132.3192271831809,186.04954895250276,96.0,0.0,0,0.0,,,,,,
59.99979161678595,1.2984563160267828,133.3192271831809,186.04954895250276,96.0,0.0,0,0.0,,,,,,
60.99979161678595,1.3088729826934495,134.3192271831809,186.04954895250276,96.0,0.0,0,0.0,,,,,,
61.99979161678595,1.3192896493601163,135.3192271831809,186.04954895250276,96.0,0.0,0,0.0,,,,,,
62.99979161678595,1.329706316026783,136.3192271831809,186.04954895250276,96.0,0.0,0,0.0,,,,,,
63.99979161678595,1.3401229826934498,137.3192271831809,186.04954895250276,96.0,0.0,0,0.0,,,,,,
64.99979161678596,1.3505396493601165,138.3192271831809,186.04954895250276,96.0,0.0,0,0.0,,,,,,
65.99979161678596,1.3609563160267832,139.3192271831809,186.04954895250276,96.0,0.0,0,0.0,,,,,,
66.99979161678596,1.37137298269345,140.3192271831809,186.04954895250276,96.0,0.0,0,0.0,,,,,,
67.99979161678596,1.3817896493601167,141.3192271831809,186.04954895250276,96.0,0.0,0,0.0,,,,,,
68.99979161678596,1.3922063160267835,142.3192271831809,186.04954895250276,96.0,0.0,0,0.0,,,,,,
69.99979161678596,1.4026229826934502,143.3192271831809,186.04954895250276,96.0,0.0,0,0.0,,,,,,
70.99979161678596,1.413039649360117,144.3192271831809,186.04954895250276,96.0,0.0,0,0.0,,,,,,
71.99979161678596,1.4234563160267837,145.3192271831809,186.04954895250276,96.0,0.0,0,0.0,,,,,,
72.99979161678596,1.4338729826934504,146.3192271831809,186.04954895250276,96.0,0.0,0,0.0,,,,,,
73.99979161678596,1.4442896493601172,147.3192271831809,186.04954895250276,96.0,0.0,0,0.0,,,,,,
74.99979161678596,1.454706316026784,148.3192271831809,186.04954895250276,96.0,0.0,0,0.0,,,,,,
75.99979161678596,1.4651229826934506,149.3192271831809,186.04954895250276,96.0,0.0,0,0.0,,,,,,
76.99979161678596,1.4755396493601174,150.3192271831809,186.04954895250276,96.0,0.0,0,0.0,,,,,,
77.99979161678596,1.4859563160267841,151.3192271831809,186.04954895250276,96.0,0.0,0,0.0,,,,,,
78.99979161678596,1.4963729826934509,152.3192271831809,186.04954895250276,96.0,0.0,0,0.0,,,,,,
79.99979161678596,1.5067896493601176,153.3192271831809,186.04954895250276,96.0,0.0,0,0.0,,,,,,
80.99979161678596,1.5172063160267844,154.3192271831809,186.04954895250276,96.0,0.0,0,-0.0,,,,,,
81.99979161678596,1.527622982693451,155.3192271831809,186.04954895250276,96.0,0.0,0,-0.0,,,,,,
82.99979161678596,1.5380396493601178,156.3192271831809,186.04954895250276,96.0,0.0,0,-0.0,,,,,,
83.99979161678596,1.5484563160267846,157.3192271831809,186.04954895250276,96.0,0.0,0,-0.0,,,,,,
84.99979161678596,1.5588729826934513,158.3192271831809,186.04954895250276,96.0,0.0,0,-0.0,,,,,,
85.99979161678596,1.569289649360118,159.3192271831809,186.04954895250276,96.0,0.0,0,-0.0,,,,,,
86.99979161678596,1.5797063160267848,160.3192271831809,186.04954895250276,96.0,0.0,0,-0.0,,,,,,
87.99979161678596,1.5901229826934515,161.3192271831809,186.04954895250276,96.0,0.0,0,-0.0,,,,,,
88.99979161678596,1.6005396493601183,162.3192271831809,186.04954895250276,96.0,0.0,0,-0.0,,,,,,
89.99979161678596,1.610956316026785,163.3192271831809,186.04954895250276,96.0,0.0,0,-0.0,,,,,,
90.99979161678596,1.6213729826934518,164.3192271831809,186.04954895250276,96.0,0.0,0,-0.0,,,,,,
91.99979161678596,1.6317896493601185,165.3192271831809,186.04954895250276,96.0,0.0,0,-0.0,,,,,,
92.99979161678596,1.6422063160267852,166.3192271831809,186.04954895250276,96.0,0.0,0,-0.0,,,,,,
93.99979161678596,1.652622982693452,167.3192271831809,186.04954895250276,96.0,0.0,0,-0.0,,,,,,
94.99979161678596,1.6630396493601187,168.3192271831809,186.04954895250276,96.0,0.0,0,-0.0,,,,,,
95.99979161678596,1.6734563160267855,169.3192271831809,186.04954895250276,96.0,0.0,0,-0.0,,,,,,
96.99979161678596,1.6838729826934522,170.3192271831809,186.04954895250276,96.0,0.0,0,-0.0,,,,,,
97.99979161678596,1.694289649360119,171.3192271831809,186.04954895250276,96.0,0.0,0,-0.0,,,,,,
98.99979161678596,1.7047063160267857,172.3192271831809,186.04954895250276,96.0,0.0,0,-0.0,,,,,,
99.99979161678596,1.7151229826934524,173.3192271831809,186.04954895250276,96.0,0.0,0,-0.0,,,,,,
100.99979161678596,1.7255396493601192,174.3192271831809,186.04954895250276,96.0,0.0,0,-0.0,,,,,,
101.99979161678596,1.735956316026786,175.3192271831809,186.04954895250276,96.0,0.0,0,-0.0,,,,,,
102.99979161678596,1.7463729826934526,176.3192271831809,186.04954895250276,96.0,0.0,0,-0.0,,,,,,
103.99979161678596,1.7567896493601194,177.3192271831809,186.04954895250276,96.0,0.0,0,-0.0,,,,,,
104.99979161678596,1.7672063160267861,178.3192271831809,186.04954895250276,96.0,0.0,0,-0.0,,,,,,
105.99979161678596,1.7776229826934529,179.3192271831809,186.04954895250276,96.0,0.0,0,-0.0,,,,,,
106.99979161678596,1.7880396493601196,180.3192271831809,186.04954895250276,96.0,0.0,0,-0.0,,,,,,
107.99979161678596,1.7984563160267864,181.3192271831809,186.04954895250276,96.0,0.0,0,-0.0,,,,,,
108.99979161678596,1.808872982693453,182.3192271831809,186.04954895250276,96.0,0.0,0,-0.0,,,,,,
109.99979161678596,1.8192896493601198,183.3192271831809,186.04954895250276,96.0,0.0,0,-0.0,,,,,,
110.99979161678596,1.8297063160267866,184.3192271831809,186.04954895250276,96.0,0.0,0,0.0,,,,,,
111.99979161678596,1.8401229826934533,185.3192271831809,186.04954895250276,96.0,0.0,0,0.0,,,,,,
112.99979161678596,1.85053964936012,186.3192271831809,186.04954895250276,96.0,0.0,0,0.0,,,,,,
113.99979161678596,1.8609563160267868,187.3192271831809,186.04954895250276,96.0,0.0,0,0.0,,,,,,
114.99979161678596,1.8713729826934535,188.3192271831809,186.04954895250276,96.0,0.0,0,0.0,,,,,,
115.99979161678596,1.8817896493601203,189.3192271831809,186.04954895250276,96.0,0.0,0,0.0,,,,,,
116.99979161678596,1.892206316026787,190.3192271831809,186.04954895250276,96.0,0.0,0,0.0,,,,,,
117.99979161678596,1.9026229826934538,191.3192271831809,186.04954895250276,96.0,0.0,0,0.0,,,,,,
118.99979161678596,1.9130396493601205,192.3192271831809,186.04954895250276,96.0,0.0,0,0.0,,,,,,
119.99979161678596,1.9234563160267872,193.3192271831809,186.04954895250276,96.0,0.0,0,0.0,,,,,,
120.99979161678596,1.933872982693454,194.3192271831809,186.04954895250276,96.0,0.0,0,0.0,,,,,,
121.99979161678596,1.9442896493601207,195.3192271831809,186.04954895250276,96.0,0.0,0,0.0,,,,,,
122.99979161678596,1.9547063160267875,196.3192271831809,186.04954895250276,96.0,0.0,0,0.0,,,,,,
123.99979161678596,1.9651229826934542,197.3192271831809,186.04954895250276,96.0,0.0,0,0.0,,,,,,
124.99979161678596,1.975539649360121,198.3192271831809,186.04954895250276,96.0,0.0,0,0.0,,,,,,
125.99979161678596,1.9859563160267877,199.3192271831809,186.04954895250276,96.0,0.0,0,0.0,,,,,,
126.99979161678596,1.9963729826934544,200.3192271831809,186.04954895250276,96.0,0.0,0,0.0,,,,,,
127.99979161678596,2.006789649360121,201.3192271831809,186.04954895250276,96.0,0.0,0,0.0,,,,,,
128.99979161678596,2.0172063160267877,202.3192271831809,186.04954895250276,96.0,0.0,0,0.0,,,,,,
129.99979161678596,2.027622982693454,203.3192271831809,186.04954895250276,96.0,0.0,0,0.0,,,,,,
130.99979161678596,2.0380396493601207,204.3192271831809,186.04954895250276,96.0,0.0,0,0.0,,,,,,
131.99979161678596,2.0484563160267872,205.3192271831809,186.04954895250276,96.0,0.0,0,0.0,,,,,,
132.99979161678596,2.0588729826934538,206.3192271831809,186.04954895250276,96.0,0.0,0,0.0,,,,,,
133.99979161678596,2.0692896493601203,207.3192271831809,186.04954895250276,96.0,0.0,0,0.0,,,,,,
134.99979161678596,2.079706316026787,208.3192271831809,186.04954895250276,96.0,0.0,0,0.0,,,,,,
135.99979161678596,2.0901229826934533,209.3192271831809,186.04954895250276,96.0,0.0,0,0.0,,,,,,
136.99979161678596,2.10053964936012,210.3192271831809,186.04954895250276,96.0,0.0,0,0.0,,,,,,
137.99979161678596,2.1109563160267864,211.3192271831809,186.04954895250276,96.0,0.0,0,0.0,,,,,,
138.99979161678596,2.121372982693453,212.3192271831809,186.04954895250276,96.0,0.0,0,0.0,,,,,,
139.99979161678596,2.1317896493601194,213.3192271831809,186.04954895250276,96.0,0.0,0,0.0,,,,,,
140.99979161678596,2.142206316026786,214.3192271831809,186.04954895250276,96.0,0.0,0,0.0,,,,,,
141.99979161678596,2.1526229826934524,215.3192271831809,186.04954895250276,96.0,0.0,0,0.0,,,,,,
142.99979161678596,2.163039649360119,216.3192271831809,186.04954895250276,96.0,0.0,0,0.0,,,,,,
143.99979161678596,2.1734563160267855,217.3192271831809,186.04954895250276,96.0,0.0,0,0.0,,,,,,
144.99979161678596,2.183872982693452,218.3192271831809,186.04954895250276,96.0,0.0,0,0.0,,,,,,
145.99979161678596,2.1942896493601185,219.3192271831809,186.04954895250276,96.0,0.0,0,0.0,,,,,,
146.6823652222044,2.201434203166853,220.0,186.0,95.07522285717502,0.0,0,0.0,,,,,,
147.6823652222044,2.2120276699944497,221.0,186.0,93.7203841474976,0.0,0,0.0,,,,,,
148.6823652222044,2.2227753928580585,222.0,186.0,92.36554543782017,0.0,0,0.0,,,,,,
149.6823652222044,2.23368193051698,223.0,186.0,91.01070672814275,0.0,0,0.0,,,,,,
150.6823652222044,2.24475204685037,224.0,186.0,89.65586801846533,0.0,0,0.0,,,,,,
151.6823652222044,2.2559907233503433,225.0,186.0,88.3010293087879,0.0,0,0.0,,,,,,
152.6823652222044,2.267403172580928,226.0,186.0,86.94619059911048,0.0,0,0.0,,,,,,
153.6823652222044,2.278994852693868,227.0,186.0,85.59135188943306,0.0,0,0.0,,,,,,
154.6823652222044,2.2907714831024597,228.0,186.0,84.23651317975563,0.0,0,0.0,,,,,,
155.6823652222044,2.3027390614260748,229.0,186.0,82.88167447007821,0.0,0,0.0,,,,,,
156.6823652222044,2.3149038818310297,230.0,186.0,81.52683576040079,0.0,0,0.0,,,,,,
157.6823652222044,2.327272554908195,231.0,186.0,80.17199705072336,0.0,0,0.0,,,,,,
158.6823652222044,2.3398520292444904,232.0,186.0,78.81715834104594,0.0,0,0.0,,,,,,
159.6823652222044,2.3526496148644847,233.0,186.0,77.46231963136852,0.0,0,0.0,,,,,,
160.6823652222044,2.3656730087400857,234.0,186.0,76.10748092169109,0.0,0,0.0,,,,,,
161.6823652222044,2.3789303225911915,235.0,186.0,74.75264221201367,0.0,0,0.0,,,,,,
162.6823652222044,2.3924301132287185,236.0,186.0,73.39780350233625,0.0,0,0.0,,,,,,
163.6823652222044,2.406181415724202,237.0,186.0,72.04296479265882,0.0,0,0.0,,,,,,
164.6823652222044,2.4201937797279394,238.0,186.0,70.6881260829814,0.0,0,0.0,,,,,,
165.6823652222044,2.434477309301253,239.0,186.0,69.33328737330397,0.0,0,0.0,,,,,,
166.6823652222044,2.449042706678955,240.0,186.0,67.97844866362655,0.0,0,0.0,,,,,,
167.6823652222044,2.4639013204367304,241.0,186.0,66.62360995394913,0.0,0,0.0,,,,,,
168.6823652222044,2.479065198606419,242.0,186.0,65.2687712442717,0.0,0,0.0,,,,,,
169.6823652222044,2.4945471473619087,243.0,186.0,63.91393253459429,0.0,0,0.0,,,,,,
170.6823652222044,2.5103607959917347,244.0,186.0,62.55909382491687,0.0,0,0.0,,,,,,
171.6823652222044,2.5265206689842397,245.0,186.0,61.204255115239455,0.0,0,0.0,,,,,,
172.6823652222044,2.5430422661805405,246.0,186.0,59.84941640556204,0.0,0,0.0,,,,,,
173.6823652222044,2.5599421521036536,247.0,186.0,58.49457769588462,0.0,0,0.0,,,,,,
174.6823652222044,2.5772380557539387,248.0,186.0,57.139738986207206,0.0,0,0.0,,,,,,
175.6823652222044,2.5949489823777263,249.0,186.0,55.78490027652979,0.0,0,0.0,,,,,,
176.6823652222044,2.6130953389753184,250.0,186.0,54.43006156685237,0.0,0,0.0,,,,,,
177.6823652222044,2.6316990756261744,251.0,186.0,53.07522285717496,0.0,0,0.0,,,,,,
178.6823652222044,2.650783845085173,252.0,186.0,51.72038414749754,0.0,0,0.0,,,,,,
179.6823652222044,2.6703751835597718,253.0,186.0,50.365545437820124,0.0,0,0.0,,,,,,
180.6823652222044,2.6905007161332875,254.0,186.0,49.01070672814271,0.0,0,0.0,,,,,,
181.6823652222044,2.7111903909794544,255.0,186.0,47.65586801846529,0.0,0,0.0,,,,,,
182.6823652222044,2.7324767473502267,256.0,186.0,46.301029308787875,0.0,0,0.0,,,,,,
183.6823652222044,2.7543952233544133,257.0,186.0,44.94619059911046,0.0,0,-0.0,,,,,,
184.6823652222044,2.776984510833889,258.0,186.0,43.59135188943304,0.0,0,-0.0,,,,,,
185.6823652222044,2.8002869662589163,259.0,186.0,42.236513179755626,0.0,0,-0.0,,,,,,
186.6823652222044,2.8243490886000067,260.0,186.0,40.88167447007821,0.0,0,-0.0,,,,,,
187.6823652222044,2.8492220777185375,261.0,186.0,39.52683576040079,0.0,0,-0.0,,,,,,
188.6823652222044,2.874962490124239,262.0,186.0,38.17199705072338,0.0,0,-0.0,,,,,,
189.6823652222044,2.901633013209228,263.0,186.0,36.81715834104596,0.0,0,-0.0,,,,,,
190.6823652222044,2.9293033846079157,264.0,186.0,35.462319631368544,0.0,0,-0.0,,,,,,
191.6823652222044,2.9580514905978794,265.0,186.0,34.10748092169113,0.0,0,-0.0,,,,,,
192.6823652222044,2.9879646870782457,266.0,186.0,32.75264221201371,0.0,0,-0.0,,,,,,
193.6823652222044,3.019141399534861,267.0,186.0,31.39780350233629,0.0,0,-0.0,,,,,,
194.6823652222044,3.051693075815949,268.0,186.0,30.04296479265887,0.0,0,-0.0,,,,,,
195.6823652222044,3.085746589383999,269.0,186.0,28.68812608298145,0.0,0,-0.0,,,,,,
196.6823652222044,3.1214472237773214,270.0,186.0,27.33328737330403,0.0,0,-0.0,,,,,,
197.6823652222044,3.1589624155282436,271.0,186.0,25.97844866362661,0.0,0,-0.0,,,,,,
198.6823652222044,3.198486499224422,272.0,186.0,24.62360995394919,0.0,0,0.0,,,,,,
199.6823652222044,3.2402467949115845,273.0,186.0,23.268771244271772,0.0,0,0.0,,,,,,
200.6823652222044,3.284511520851591,274.0,186.0,21.913932534594352,0.0,0,0.0,,,,,,
201.6823652222044,3.3316002303556203,275.0,186.0,20.559093824916932,0.0,0,0.0,,,,,,
202.6823652222044,3.3818978047125987,276.0,186.0,19.204255115239512,0.0,0,0.0,,,,,,
203.6823652222044,3.43587356252319,277.0,186.0,17.849416405562092,0.0,0,0.0,,,,,,
204.6823652222044,3.494107907488785,278.0,186.0,16.494577695884672,0.0,0,0.0,,,,,,
205.6823652222044,3.5573303889508927,279.0,186.0,15.139738986207252,0.0,0,0.0,,,,,,
206.6823652222044,3.6264755901004384,280.0,186.0,13.784900276529832,0.0,0,0.0,,,,,,
