Distance (in),Time (s),X (in),Y (in),Velocity (in/s),Orientation (deg),Touch,Rotational Velocity (deg/s),Way X (in),Way Y (in),Way Velocity (in/s),Way Orientation (deg),Way Turn Radius (in),Touch this Point
0.0,0.0,74.0,154.0,12.0,0.0,0,0.0,74.0,154.0,12.0,0.0,3.0,0
1.0,0.08064487224461817,74.0,155.0,12.80008888765361,0.0,0,0.0,74.0,186.0,36.0,0.0,10.0,0
2.0,0.15640168279251954,74.0,156.0,13.60017777530722,0.0,0,0.0,170.0,186.0,192.0,0.0,3.0,0
3.0,0.22782912046799483,74.0,157.0,14.40026666296083,0.0,0,0.0,230.0,186.0,0.0,0.0,3.0,0
4.0,0.295395267745898,74.0,158.0,15.20035555061444,0.0,0,0.0,,,,,,
5.0,0.35949618825795676,74.0,159.0,16.00044443826805,0.0,0,0.0,,,,,,
6.0,0.42046998039239397,74.0,160.0,16.800533325921663,0.0,0,0.0,,,,,,
7.0,0.47860756236122476,74.0,161.0,17.600622213575274,0.0,0,-0.0,,,,,,
8.0,0.5341610604084089,74.0,162.0,18.400711101228886,0.0,0,-0.0,,,,,,
9.0,0.5873504121662954,74.0,163.0,19.200799988882498,0.0,0,-0.0,,,,,,
10.0,0.6383686222966318,74.0,164.0,20.00088887653611,0.0,0,-0.0,,,,,,
11.0,0.6873859875463807,74.0,165.0,20.80097776418972,0.0,0,-0.0,,,,,,
12.0,0.7345535245730567,74.0,166.0,21.601066651843333,0.0,0,-0.0,,,,,,
13.0,0.7800057744913257,74.0,167.0,22.401155539496944,0.0,0,-0.0,,,,,,
14.0,0.823863115365112,74.0,168.0,23.201244427150556,0.0,0,-0.0,,,,,,
15.0,0.8662336827297489,74.0,169.0,24.001333314804167,0.0,0,-0.0,,,,,,
16.0,0.9072149752572288,74.0,170.0,24.80142220245778,0.0,0,0.0,,,,,,
17.0,0.9468952055404702,74.0,171.0,25.60151109011139,0.0,0,0.0,,,,,,
18.0,0.9853544430539629,74.0,172.0,26.401599977765002,0.0,0,0.0,,,,,,
19.0,1.0226655865147867,74.0,173.0,27.201688865418614,0.0,0,0.0,,,,,,
20.0,1.0588951953149355,74.0,174.0,28.001777753072226,0.0,0,0.0,,,,,,
21.0,1.0941042038450002,74.0,175.0,28.801866640725837,0.0,0,0.0,,,,,,
22.0,1.128348537960824,74.0,176.0,29.60195552837945,0.0,0,0.0,,,,,,
22.99958338541357,1.161665948105618,74.04995834721974,176.99833416646828,30.40171108733202,0.0,0,0.0,,,,,,
23.999166770827138,1.1941182800205705,74.19933422158758,177.98669330795062,31.201466646284594,0.0,0,0.0,,,,,,
24.998750156240703,1.225749319888568,74.44663510874395,178.9552020666134,32.00122220523716,0.0,0,0.0,,,,,,
25.99833354165427,1.2565996115726517,74.78939005997115,179.8941834230865,32.80097776418973,0.0,0,0.0,,,,,,
26.997916927067845,1.2867067690252334,75.22417438109628,180.79425538604204,33.60073332314231,0.0,0,0.0,,,,,,
27.99750031248142,1.3161057519551782,75.74664385090323,181.64642473395037,34.40048888209488,0.0,0,0.0,,,,,,
28.99708369789497,1.3448291098190295,76.35157812715512,182.4421768723769,35.20024444104744,0.0,0,0.0,,,,,,
29.996667083308534,1.3727238812597489,77.03293290652834,183.17356090899523,36.46790939472268,0.0,0,0.0,,,,,,
30.996250468722113,1.3996655647223195,77.78390031729336,183.83326909627485,37.73557434839795,0.0,0,0.0,,,,,,
31.995833854135693,1.4257171372672501,78.59697694131862,184.41470984807899,39.00323930207321,0.0,0,0.0,,,,,,
32.99541723954925,1.4509355335955427,79.46403878574424,184.91207360061435,40.27090425574844,0.0,0,0.0,,,,,,
33.99500062496283,1.4753723950756283,80.37642245523328,185.32039085967227,41.538569209423706,0.0,0,0.0,,,,,,
34.994584010376386,1.4990747061948737,81.32501171375414,185.63558185417193,42.80623416309894,0.0,0,0.0,,,,,,
35.99416739578996,1.5220853381466812,82.3003285709976,185.8544972998846,44.0738991167742,0.0,0,0.0,,,,,,
36.99416739578996,1.5444527018102154,83.3003285709976,185.8544972998846,45.34209241827727,0.0,0,0.0,,,,,,
37.99416739578996,1.5662030908757074,84.3003285709976,185.8544972998846,46.610285719780336,0.0,0,0.0,,,,,,
38.99416739578996,1.5873696285638736,85.3003285709976,185.8544972998846,47.878479021283404,0.0,0,0.0,,,,,,
39.99416739578996,1.607982840419711,86.3003285709976,185.8544972998846,49.14667232278647,0.0,0,0.0,,,,,,
40.99416739578996,1.6280709190215414,87.3003285709976,185.8544972998846,50.41486562428954,0.0,0,0.0,,,,,,
41.99416739578996,1.6476599558096394,88.3003285709976,185.8544972998846,51.68305892579261,0.0,0,0.0,,,,,,
42.99416739578996,1.6667741448166644,89.3003285709976,185.8544972998846,52.951252227295676,0.0,0,0.0,,,,,,
43.99416739578996,1.6854359622898671,90.3003285709976,185.8544972998846,54.219445528798744,0.0,0,0.0,,,,,,
44.99416739578996,1.7036663255493032,91.3003285709976,185.8544972998846,55.48763883030181,0.0,0,0.0,,,,,,
45.99416739578996,1.7214847338973058,92.3003285709976,185.8544972998846,56.75583213180488,0.0,0,0.0,,,,,,
46.99416739578996,1.7389093939589846,93.3003285709976,185.8544972998846,58.02402543330795,0.0,0,0.0,,,,,,
47.99416739578996,1.7559573314733659,94.3003285709976,185.8544972998846,59.292218734811016,0.0,0,-0.0,,,,,,
48.99416739578996,1.7726444912556094,95.3003285709976,185.8544972998846,60.560412036314084,0.0,0,-0.0,,,,,,
49.99416739578996,1.7889858268011527,96.3003285709976,185.8544972998846,61.82860533781715,0.0,0,-0.0,,,,,,
50.99416739578996,1.804995380793598,97.3003285709976,185.8544972998846,63.09679863932022,0.0,0,-0.0,,,,,,
51.99416739578996,1.8206863576023888,98.3003285709976,185.8544972998846,64.36499194082329,0.0,0,-0.0,,,,,,
52.99416739578996,1.8360711887079995,99.3003285709976,185.8544972998846,65.63318524232636,0.0,0,-0.0,,,,,,
53.99416739578996,1.8511615918667332,100.3003285709976,185.8544972998846,66.90137854382944,0.0,0,-0.0,,,,,,
54.99416739578996,1.8659686247204865,101.3003285709976,185.8544972998846,68.16957184533251,0.0,0,-0.0,,,,,,
55.99416739578996,1.8805027334658206,102.3003285709976,185.8544972998846,69.43776514683559,0.0,0,-0.0,,,,,,
56.99416739578996,1.8947737971188552,103.3003285709976,185.8544972998846,70.70595844833866,0.0,0,-0.0,,,,,,
57.99416739578996,1.9087911678457352,104.3003285709976,185.8544972998846,71.97415174984174,0.0,0,-0.0,,,,,,
58.99416739578996,1.92256370777099,105.3003285709976,185.8544972998846,73.24234505134481,0.0,0,-0.0,,,,,,
59.99416739578996,1.9360998226265547,106.3003285709976,185.8544972998846,74.51053835284789,0.0,0,-0.0,,,,,,
60.99416739578996,1.9494074925613691,107.3003285709976,185.8544972998846,75.77873165435096,0.0,0,-0.0,,,,,,
61.99416739578996,1.962494300394305,108.3003285709976,185.8544972998846,77.04692495585404,0.0,0,-0.0,,,,,,
62.99416739578996,1.9753674575608549,109.3003285709976,185.8544972998846,78.31511825735711,0.0,0,-0.0,,,,,,
63.99416739578996,1.9880338279758607,110.3003285709976,185.8544972998846,79.58331155886019,0.0,0,-0.0,,,,,,
64.99416739578996,2.000499950009958,111.3003285709976,185.8544972998846,80.85150486036326,0.0,0,-0.0,,,,,,
65.99416739578996,2.012772056755879,112.3003285709976,185.8544972998846,82.11969816186634,0.0,0,-0.0,,,,,,
66.99416739578996,2.024856094741863,113.3003285709976,185.8544972998846,83.38789146336941,0.0,0,-0.0,,,,,,
67.99416739578996,2.0367577412328,114.3003285709976,185.8544972998846,84.65608476487249,0.0,0,-0.0,,,,,,
68.99416739578996,2.0484824202451115,115.3003285709976,185.8544972998846,85.92427806637556,0.0,0,-0.0,,,,,,
69.99416739578996,2.0600353173884325,116.3003285709976,185.8544972998846,87.19247136787864,0.0,0,-0.0,,,,,,
70.99416739578996,2.071421393635746,117.3003285709976,185.8544972998846,88.46066466938171,0.0,0,-0.0,,,,,,
71.99416739578996,2.082645398113482,118.3003285709976,185.8544972998846,89.72885797088479,0.0,0,-0.0,,,,,,
72.99416739578996,2.0937118799941064,119.3003285709976,185.8544972998846,90.99705127238786,0.0,0,-0.0,,,,,,
73.99416739578996,2.1046251995657306,120.3003285709976,185.8544972998846,92.26524457389094,0.0,0,-0.0,,,,,,
74.99416739578996,2.115389538546153,121.3003285709976,185.8544972998846,93.53343787539401,0.0,0,0.0,,,,,,
75.99416739578996,2.12600890970238,122.3003285709976,185.8544972998846,94.80163117689709,0.0,0,0.0,,,,,,
76.99416739578996,2.136487165831007,123.3003285709976,185.8544972998846,96.06982447840016,0.0,0,0.0,,,,,,
77.99416739578996,2.1468280081497424,124.3003285709976,185.8544972998846,97.33801777990324,0.0,0,0.0,,,,,,
78.99416739578996,2.157034994145822,125.3003285709976,185.8544972998846,98.60621108140631,0.0,0,0.0,,,,,,
79.99416739578996,2.167111544922941,126.3003285709976,185.8544972998846,99.87440438290939,0.0,0,0.0,,,,,,
80.99416739578996,2.1770609520846804,127.3003285709976,185.8544972998846,101.14259768441246,0.0,0,0.0,,,,,,
81.99416739578996,2.1868863841890764,128.3003285709976,185.8544972998846,102.41079098591554,0.0,0,0.0,,,,,,
82.99416739578996,2.1965908928060003,129.3003285709976,185.8544972998846,103.67898428741861,0.0,0,0.0,,,,,,
83.99416739578996,2.206177418206326,130.3003285709976,185.8544972998846,104.94717758892169,0.0,0,0.0,,,,,,
84.99416739578996,2.2156487947094163,131.3003285709976,185.8544972998846,106.21537089042477,0.0,0,0.0,,,,,,
85.99416739578996,2.2250077557132664,132.3003285709976,185.8544972998846,107.48356419192784,0.0,0,0.0,,,,,,
86.99416739578996,2.234256938429632,133.3003285709976,185.8544972998846,108.75175749343092,0.0,0,0.0,,,,,,
87.99416739578996,2.243398888344672,134.3003285709976,185.8544972998846,110.01995079493399,0.0,0,0.0,,,,,,
88.99416739578996,2.2524360634239735,135.3003285709976,185.8544972998846,111.28814409643707,0.0,0,0.0,,,,,,
89.99416739578996,2.261370838079342,136.3003285709976,185.8544972998846,112.55633739794014,0.0,0,0.0,,,,,,
90.99416739578996,2.2702055069133693,137.3003285709976,185.8544972998846,113.82453069944322,0.0,0,0.0,,,,,,
91.99416739578996,2.2789422882565566,138.3003285709976,185.8544972998846,115.09272400094629,0.0,0,0.0,,,,,,
92.99416739578996,2.2875833275106263,139.3003285709976,185.8544972998846,116.36091730244937,0.0,0,0.0,,,,,,
93.99416739578996,2.2961307003106333,140.3003285709976,185.8544972998846,117.62911060395244,0.0,0,0.0,,,,,,
94.99416739578996,2.30458641551753,141.3003285709976,185.8544972998846,118.89730390545552,0.0,0,0.0,,,,,,
95.99416739578996,2.312952418051984,142.3003285709976,185.8544972998846,120.16549720695859,0.0,0,0.0,,,,,,
96.99416739578996,2.321230591579437,143.3003285709976,185.8544972998846,121.43369050846167,0.0,0,0.0,,,,,,
97.99416739578996,2.3294227610556946,144.3003285709976,185.8544972998846,122.70188380996474,0.0,0,0.0,,,,,,
98.99416739578996,2.3375306951416324,145.3003285709976,185.8544972998846,123.97007711146782,0.0,0,0.0,,,,,,
99.99416739578996,2.345556108495027,146.3003285709976,185.8544972998846,125.23827041297089,0.0,0,0.0,,,,,,
100.99416739578996,2.35350066394693,147.3003285709976,185.8544972998846,126.50646371447397,0.0,0,0.0,,,,,,
101.99416739578996,2.361365974569499,148.3003285709976,185.8544972998846,127.77465701597704,0.0,0,0.0,,,,,,
102.99416739578996,2.3691536056417184,149.3003285709976,185.8544972998846,129.04285031748012,0.0,0,0.0,,,,,,
103.99416739578996,2.376865076518998,150.3003285709976,185.8544972998846,130.31104361898318,0.0,0,0.0,,,,,,
104.99416739578996,2.384501862412236,151.3003285709976,185.8544972998846,131.57923692048624,0.0,0,0.0,,,,,,
105.99416739578996,2.3920653960815628,152.3003285709976,185.8544972998846,132.8474302219893,0.0,0,0.0,,,,,,
106.99416739578996,2.399557069449619,153.3003285709976,185.8544972998846,134.11562352349236,0.0,0,0.0,,,,,,
107.99416739578996,2.40697823513892,154.3003285709976,185.8544972998846,135.38381682499542,0.0,0,0.0,,,,,,
108.99416739578996,2.414330207937549,155.3003285709976,185.8544972998846,136.65201012649848,0.0,0,0.0,,,,,,
109.99416739578996,2.4216142661971554,156.3003285709976,185.8544972998846,137.92020342800154,0.0,0,0.0,,,,,,
110.99416739578996,2.4288316531669687,157.3003285709976,185.8544972998846,139.1883967295046,0.0,0,0.0,,,,,,
111.99416739578996,2.4359835782673205,158.3003285709976,185.8544972998846,140.45659003100766,0.0,0,0.0,,,,,,
112.99416739578996,2.443071218305926,159.3003285709976,185.8544972998846,141.72478333251073,0.0,0,0.0,,,,,,
113.99416739578996,2.4500957186399943,160.3003285709976,185.8544972998846,142.9929766340138,0.0,0,0.0,,,,,,
114.99416739578996,2.4570581942870287,161.3003285709976,185.8544972998846,144.26116993551685,0.0,0,0.0,,,,,,
115.99416739578996,2.463959730987019,162.3003285709976,185.8544972998846,145.5293632370199,0.0,0,0.0,,,,,,
116.99416739578996,2.470801386218551,163.3003285709976,185.8544972998846,146.79755653852297,0.0,0,0.0,,,,,,
117.99416739578996,2.477584190171215,164.3003285709976,185.8544972998846,148.06574984002603,0.0,0,0.0,,,,,,
118.99416739578996,2.484309146676547,165.3003285709976,185.8544972998846,149.3339431415291,0.0,0,0.0,,,,,,
119.99416739578996,2.4909772340996077,166.3003285709976,185.8544972998846,150.60213644303215,0.0,0,0.0,,,,,,
120.99416739578996,2.497589406193182,167.3003285709976,185.8544972998846,151.8703297445352,0.0,0,0.0,,,,,,
121.99416739578996,2.5041465929164577,168.3003285709976,185.8544972998846,153.13852304603827,0.0,0,0.0,,,,,,
122.99416739578996,2.5106497012199505,169.3003285709976,185.8544972998846,154.40671634754133,0.0,0,0.0,,,,,,
123.7088079657992,2.5153057292124,170.0,186.0,152.56762795114363,0.0,0,0.0,,,,,,
124.7088079657992,2.521915948776583,171.0,186.0,149.9941826786846,0.0,0,0.0,,,,,,
125.7088079657992,2.5286405609763642,172.0,186.0,147.42073740622558,0.0,0,0.0,,,,,,
126.7088079657992,2.5354835947599357,173.0,186.0,144.84729213376656,0.0,0,0.0,,,,,,
127.7088079657992,2.542449295742455,174.0,186.0,142.27384686130753,0.0,0,0.0,,,,,,
128.7088079657992,2.549542142025379,175.0,186.0,139.7004015888485,0.0,0,0.0,,,,,,
129.7088079657992,2.5567668614863965,176.0,186.0,137.12695631638948,0.0,0,0.0,,,,,,
130.7088079657992,2.5641284507071167,177.0,186.0,134.55351104393046,0.0,0,0.0,,,,,,
131.7088079657992,2.5716321957282746,178.0,186.0,131.98006577147143,0.0,0,0.0,,,,,,
132.7088079657992,2.5792836948483577,179.0,186.0,129.4066204990124,0.0,0,0.0,,,,,,
133.7088079657992,2.587088883711925,180.0,186.0,126.83317522655338,0.0,0,0.0,,,,,,
134.7088079657992,2.5950540629692247,181.0,186.0,124.25972995409435,0.0,0,0.0,,,,,,
135.7088079657992,2.603185928829959,182.0,186.0,121.68628468163533,0.0,0,0.0,,,,,,
136.7088079657992,2.6114916068823666,183.0,186.0,119.1128394091763,0.0,0,0.0,,,,,,
137.7088079657992,2.6199786896055204,184.0,186.0,116.53939413671728,0.0,0,0.0,,,,,,
138.7088079657992,2.628655278069639,185.0,186.0,113.96594886425825,0.0,0,0.0,,,,,,
139.7088079657992,2.637530028398296,186.0,186.0,111.39250359179923,0.0,0,0.0,,,,,,
140.7088079657992,2.6466122036603155,187.0,186.0,108.8190583193402,0.0,0,0.0,,,,,,
141.7088079657992,2.6559117319710084,188.0,186.0,106.24561304688118,0.0,0,0.0,,,,,,
142.7088079657992,2.6654392717162123,189.0,186.0,103.67216777442215,0.0,0,0.0,,,,,,
143.7088079657992,2.675206284973324,190.0,186.0,101.09872250196312,0.0,0,0.0,,,,,,
144.7088079657992,2.685225120397373,191.0,186.0,98.5252772295041,0.0,0,0.0,,,,,,
145.7088079657992,2.6955091070751136,192.0,186.0,95.95183195704507,0.0,0,0.0,,,,,,
146.7088079657992,2.706072661136104,193.0,186.0,93.37838668458605,0.0,0,0.0,,,,,,
147.7088079657992,2.7169314072596933,194.0,186.0,90.80494141212702,0.0,0,0.0,,,,,,
148.7088079657992,2.7281023176472585,195.0,186.0,88.231496139668,0.0,0,0.0,,,,,,
149.7088079657992,2.73960387156137,196.0,186.0,85.65805086720897,0.0,0,0.0,,,,,,
150.7088079657992,2.751456239195815,197.0,186.0,83.08460559474995,0.0,0,0.0,,,,,,
151.7088079657992,2.7636814944693175,198.0,186.0,80.51116032229092,0.0,0,0.0,,,,,,
152.7088079657992,2.776303862380121,199.0,186.0,77.9377150498319,0.0,0,0.0,,,,,,
153.7088079657992,2.7893500078834186,200.0,186.0,75.36426977737287,0.0,0,0.0,,,,,,
154.7088079657992,2.8028493749466215,201.0,186.0,72.79082450491384,0.0,0,0.0,,,,,,
155.7088079657992,2.816834586617925,202.0,186.0,70.21737923245482,0.0,0,0.0,,,,,,
156.7088079657992,2.8313419197753285,203.0,186.0,67.64393395999579,0.0,0,0.0,,,,,,
157.7088079657992,2.8464118719335176,204.0,186.0,65.07048868753677,0.0,0,0.0,,,,,,
158.7088079657992,2.862089842393832,205.0,186.0,62.49704341507774,0.0,0,0.0,,,,,,
159.7088079657992,2.8784269565810456,206.0,186.0,59.923598142618715,0.0,0,0.0,,,,,,
160.7088079657992,2.8954810712719117,207.0,186.0,57.35015287015969,0.0,0,0.0,,,,,,
161.7088079657992,2.9133180105356598,208.0,186.0,54.776707597700664,0.0,0,0.0,,,,,,
162.7088079657992,2.9320130989848394,209.0,186.0,52.20326232524164,0.0,0,0.0,,,,,,
163.7088079657992,2.9516530824972267,210.0,186.0,49.62981705278261,0.0,0,0.0,,,,,,
164.7088079657992,2.9723385601661447,211.0,186.0,47.05637178032359,0.0,0,0.0,,,,,,
165.7088079657992,2.9941870999452407,212.0,186.0,44.48292650786456,0.0,0,0.0,,,,,,
166.7088079657992,3.017337282377282,213.0,186.0,41.909481235405536,0.0,0,0.0,,,,,,
167.7088079657992,3.0419540251708224,214.0,186.0,39.33603596294651,0.0,0,-0.0,,,,,,
168.7088079657992,3.0682357084015637,215.0,186.0,36.762590690487485,0.0,0,-0.0,,,,,,
169.7088079657992,3.0964238840501643,216.0,186.0,34.18914541802846,0.0,0,-0.0,,,,,,
170.7088079657992,3.1268167826713924,217.0,186.0,31.615700145569438,0.0,0,-0.0,,,,,,
171.7088079657992,3.1597885503378773,218.0,186.0,29.042254873110416,0.0,0,-0.0,,,,,,
172.7088079657992,3.1958174036657634,219.0,186.0,26.468809600651394,0.0,0,-0.0,,,,,,
173.7088079657992,3.235528171141582,220.0,186.0,23.89536432819237,0.0,0,-0.0,,,,,,
174.7088079657992,3.279759045938253,221.0,186.0,21.32191905573335,0.0,0,-0.0,,,,,,
175.7088079657992,3.32967120946596,222.0,186.0,18.748473783274328,0.0,0,-0.0,,,,,,
176.7088079657992,3.3869392343953635,223.0,186.0,16.175028510815306,0.0,0,-0.0,,,,,,
177.7088079657992,3.4541060435960658,224.0,186.0,13.601583238356284,0.0,0,0.0,,,,,,
178.7088079657992,3.5322262122348396,225.0,186.0,12.0,0.0,0,0.0,,,,,,
179.7088079657992,3.615559545568173,226.0,186.0,12.0,0.0,0,0.0,,,,,,
180.7088079657992,3.6988928789015065,227.0,186.0,12.0,0.0,0,0.0,,,,,,
181.7088079657992,3.78222621223484,228.0,186.0,12.0,0.0,0,0.0,,,,,,
182.7088079657992,3.8655595455681735,229.0,186.0,12.0,0.0,0,0.0,,,,,,
183.7088079657992,4.03222621223484,230.0,186.0,0.0,0.0,0,0.0,,,,,,
