Distance (in),Time (s),X (in),Y (in),Velocity (in/s),Orientation (deg),Touch,Rotational Velocity (deg/s),Way X (in),Way Y (in),Way Velocity (in/s),Way Orientation (deg),Way Turn Radius (in),Touch this Point
0.0,0.0,90.0,130.0,0.0,0.0,0,0.0,90.0,130.0,0.0,0.0,3.0,0.0
1.0,0.16666666666666666,91.0,130.0,12.0,0.0,0,0.0,162.0,130.0,240.0,0.0,3.0,0.0
2.0,0.25,92.0,130.0,12.0,0.0,0,0.0,240.0,130.0,0.0,0.0,3.0,0.0
3.0,0.3333333333333333,93.0,130.0,12.0,0.0,0,0.0,,,,,,
4.0,0.41666666666666663,94.0,130.0,12.0,0.0,0,0.0,,,,,,
5.0,0.49999999999999994,95.0,130.0,12.0,0.0,0,0.0,,,,,,
6.0,0.5833333333333333,96.0,130.0,12.0,0.0,0,0.0,,,,,,
7.0,0.6640429548975273,97.0,130.0,12.780193008453876,0.0,0,0.0,,,,,,
8.0,0.7370726292315495,98.0,130.0,14.60593486680443,0.0,0,-0.0,,,,,,
9.0,0.8015105771733337,99.0,130.0,16.431676725154983,0.0,0,-0.0,,,,,,
10.0,0.8591655832265092,100.0,130.0,18.257418583505537,0.0,0,-0.0,,,,,,
11.0,0.9113296363222393,101.0,130.0,20.08316044185609,0.0,0,-0.0,,,,,,
12.0,0.9589576848009493,102.0,130.0,21.908902300206645,0.0,0,-0.0,,,,,,
13.0,1.0027754894013627,103.0,130.0,23.7346441585572,0.0,0,-0.0,,,,,,
14.0,1.0433475306980418,104.0,130.0,25.560386016907753,0.0,0,-0.0,,,,,,
15.0,1.0811215001811567,105.0,130.0,27.386127875258307,0.0,0,-0.0,,,,,,
16.0,1.1164584393750383,106.0,130.0,29.21186973360886,0.0,0,-0.0,,,,,,
17.0,1.149653745890503,107.0,130.0,31.037611591959415,0.0,0,-0.0,,,,,,
18.0,1.180952177747941,108.0,130.0,32.863353450309965,0.0,0,-0.0,,,,,,
19.0,1.2105588024779501,109.0,130.0,34.68909530866052,0.0,0,-0.0,,,,,,
20.0,1.2386471387602662,110.0,130.0,36.51483716701107,0.0,0,-0.0,,,,,,
21.0,1.2653653122971036,111.0,130.0,38.34057902536163,0.0,0,-0.0,,,,,,
22.0,1.2908407800880415,112.0,130.0,40.16632088371218,0.0,0,-0.0,,,,,,
23.0,1.3151840048660488,113.0,130.0,41.992062742062735,0.0,0,0.0,,,,,,
24.0,1.3384913477386091,114.0,130.0,43.81780460041329,0.0,0,0.0,,,,,,
25.0,1.3608473704939221,115.0,130.0,45.64354645876384,0.0,0,0.0,,,,,,
26.0,1.382326686474517,116.0,130.0,47.4692883171144,0.0,0,0.0,,,,,,
27.0,1.402995462229429,117.0,130.0,49.29503017546495,0.0,0,0.0,,,,,,
28.0,1.4229126461387076,118.0,130.0,51.120772033815506,0.0,0,0.0,,,,,,
29.0,1.442130981489766,119.0,130.0,52.94651389216606,0.0,0,0.0,,,,,,
30.0,1.4606978478458734,120.0,130.0,54.772255750516614,0.0,0,0.0,,,,,,
31.0,1.4786559644853872,121.0,130.0,56.59799760886717,0.0,0,0.0,,,,,,
32.0,1.496043982183964,122.0,130.0,58.42373946721772,0.0,0,0.0,,,,,,
33.0,1.5128969839533537,123.0,130.0,60.249481325568276,0.0,0,0.0,,,,,,
34.0,1.5292469110430602,124.0,130.0,62.07522318391883,0.0,0,0.0,,,,,,
35.0,1.5451229272026303,125.0,130.0,63.900965042269384,0.0,0,0.0,,,,,,
36.0,1.5605517316393955,126.0,130.0,65.72670690061993,0.0,0,0.0,,,,,,
37.0,1.5755578291052905,127.0,130.0,67.55244875897048,0.0,0,0.0,,,,,,
38.0,1.590163763972095,128.0,130.0,69.37819061732104,0.0,0,0.0,,,,,,
39.0,1.604390323907294,129.0,130.0,71.20393247567159,0.0,0,0.0,,,,,,
40.0,1.6182567177681844,130.0,130.0,73.02967433402215,0.0,0,0.0,,,,,,
41.0,1.631780731533744,131.0,130.0,74.8554161923727,0.0,0,0.0,,,,,,
42.0,1.6449788654495312,132.0,130.0,76.68115805072325,0.0,0,0.0,,,,,,
43.0,1.657866455037888,133.0,130.0,78.50689990907381,0.0,0,0.0,,,,,,
44.0,1.6704577781989265,134.0,130.0,80.33264176742436,0.0,0,0.0,,,,,,
45.0,1.6827661502776943,135.0,130.0,82.15838362577492,0.0,0,0.0,,,,,,
46.0,1.6948040086844012,136.0,130.0,83.98412548412547,0.0,0,0.0,,,,,,
47.0,1.7065829884156951,137.0,130.0,85.80986734247602,0.0,0,0.0,,,,,,
48.0,1.7181139896263302,138.0,130.0,87.63560920082658,0.0,0,0.0,,,,,,
49.0,1.7294072382346841,139.0,130.0,89.46135105917713,0.0,0,0.0,,,,,,
50.0,1.7404723404065057,140.0,130.0,91.28709291752769,0.0,0,0.0,,,,,,
51.0,1.7513183316442318,141.0,130.0,93.11283477587824,0.0,0,0.0,,,,,,
52.0,1.7619537211103515,142.0,130.0,94.9385766342288,0.0,0,0.0,,,,,,
53.0,1.7723865317294976,143.0,130.0,96.76431849257935,0.0,0,0.0,,,,,,
54.0,1.7826243365426782,144.0,130.0,98.5900603509299,0.0,0,0.0,,,,,,
55.0,1.7926742917262593,145.0,130.0,100.41580220928046,0.0,0,0.0,,,,,,
56.0,1.8025431666362624,146.0,130.0,102.24154406763101,0.0,0,0.0,,,,,,
57.0,1.812237371193876,147.0,130.0,104.06728592598157,0.0,0,0.0,,,,,,
58.0,1.821762980889618,148.0,130.0,105.89302778433212,0.0,0,0.0,,,,,,
59.0,1.83112575965039,149.0,130.0,107.71876964268267,0.0,0,0.0,,,,,,
60.0,1.8403311807849307,150.0,130.0,109.54451150103323,0.0,0,0.0,,,,,,
61.0,1.8493844461982394,151.0,130.0,111.37025335938378,0.0,0,0.0,,,,,,
62.0,1.8582905040438518,152.0,130.0,113.19599521773434,0.0,0,0.0,,,,,,
63.0,1.8670540649639344,153.0,130.0,115.02173707608489,0.0,0,0.0,,,,,,
64.0,1.87567961705063,154.0,130.0,116.84747893443544,0.0,0,0.0,,,,,,
65.0,1.8841714396476092,155.0,130.0,118.673220792786,0.0,0,0.0,,,,,,
66.0,1.8925336160980697,156.0,130.0,120.49896265113655,0.0,0,0.0,,,,,,
67.0,1.9007700455342376,157.0,130.0,122.3247045094871,0.0,0,0.0,,,,,,
68.0,1.9088844537935734,158.0,130.0,124.15044636783766,0.0,0,0.0,,,,,,
69.0,1.9168804035381743,159.0,130.0,125.97618822618821,0.0,0,0.0,,,,,,
70.0,1.9247613036461624,160.0,130.0,127.80193008453877,0.0,0,0.0,,,,,,
71.0,1.9325304179370157,161.0,130.0,129.62767194288932,0.0,0,0.0,,,,,,
72.0,1.9402945904922912,162.0,130.0,127.96577871285228,0.0,0,0.0,,,,,,
73.0,1.9481602554992696,163.0,130.0,126.30388548281525,0.0,0,0.0,,,,,,
74.0,1.9561301014997179,164.0,130.0,124.64199225277821,0.0,0,0.0,,,,,,
75.0,1.96420692529883,165.0,130.0,122.98009902274117,0.0,0,0.0,,,,,,
76.0,1.9723936378571134,166.0,130.0,121.31820579270413,0.0,0,0.0,,,,,,
77.0,1.9806932705886147,167.0,130.0,119.6563125626671,0.0,0,0.0,,,,,,
78.0,1.9891089820995775,168.0,130.0,117.99441933263006,0.0,0,0.0,,,,,,
79.0,1.997644065405022,169.0,130.0,116.33252610259302,0.0,0,0.0,,,,,,
80.0,2.006301955664502,170.0,130.0,114.67063287255598,0.0,0,0.0,,,,,,
81.0,2.0150862384825143,171.0,130.0,113.00873964251895,0.0,0,0.0,,,,,,
82.0,2.0240006588237565,172.0,130.0,111.34684641248191,0.0,0,0.0,,,,,,
83.0,2.0330491305987013,173.0,130.0,109.68495318244487,0.0,0,0.0,,,,,,
84.0,2.0422357469808974,174.0,130.0,108.02305995240783,0.0,0,0.0,,,,,,
85.0,2.051564791524058,175.0,130.0,106.3611667223708,0.0,0,0.0,,,,,,
86.0,2.061040750154512,176.0,130.0,104.69927349233376,0.0,0,0.0,,,,,,
87.0,2.0706683241230537,177.0,130.0,103.03738026229672,0.0,0,0.0,,,,,,
88.0,2.080452444009783,178.0,130.0,101.37548703225968,0.0,0,0.0,,,,,,
89.0,2.0903982848863754,179.0,130.0,99.71359380222265,0.0,0,0.0,,,,,,
90.0,2.1005112827524903,180.0,130.0,98.05170057218561,0.0,0,0.0,,,,,,
91.0,2.1107971523770006,181.0,130.0,96.38980734214857,0.0,0,0.0,,,,,,
92.0,2.121261906690633,182.0,130.0,94.72791411211153,0.0,0,0.0,,,,,,
93.0,2.1319118778947717,183.0,130.0,93.0660208820745,0.0,0,0.0,,,,,,
94.0,2.142753740471958,184.0,130.0,91.40412765203746,0.0,0,0.0,,,,,,
95.0,2.153794536307441,185.0,130.0,89.74223442200042,0.0,0,0.0,,,,,,
96.0,2.165041702158541,186.0,130.0,88.08034119196338,0.0,0,0.0,,,,,,
97.0,2.1765030997401382,187.0,130.0,86.41844796192635,0.0,0,0.0,,,,,,
98.0,2.188187048731087,188.0,130.0,84.75655473188931,0.0,0,0.0,,,,,,
99.0,2.2001023630485887,189.0,130.0,83.09466150185227,0.0,0,0.0,,,,,,
100.0,2.212258390786646,190.0,130.0,81.43276827181523,0.0,0,0.0,,,,,,
101.0,2.2246650582718797,191.0,130.0,79.7708750417782,0.0,0,0.0,,,,,,
102.0,2.2373329187568025,192.0,130.0,78.10898181174116,0.0,0,0.0,,,,,,
103.0,2.250273206348928,193.0,130.0,76.44708858170412,0.0,0,0.0,,,,,,
104.0,2.2634978958661556,194.0,130.0,74.78519535166708,0.0,0,0.0,,,,,,
105.0,2.277019769417478,195.0,130.0,73.12330212163005,0.0,0,0.0,,,,,,
106.0,2.2908524906366465,196.0,130.0,71.46140889159301,0.0,0,0.0,,,,,,
107.0,2.3050106876492076,197.0,130.0,69.79951566155597,0.0,0,0.0,,,,,,
108.0,2.3195100460355653,198.0,130.0,68.13762243151893,0.0,0,0.0,,,,,,
109.0,2.334367413270969,199.0,130.0,66.4757292014819,0.0,0,0.0,,,,,,
110.0,2.3496009163857496,200.0,130.0,64.81383597144486,0.0,0,0.0,,,,,,
111.0,2.365230094906109,201.0,130.0,63.151942741407815,0.0,0,0.0,,,,,,
112.0,2.381276051520345,202.0,130.0,61.49004951137077,0.0,0,0.0,,,,,,
113.0,2.397761623384286,203.0,130.0,59.828156281333726,0.0,0,0.0,,,,,,
114.0,2.4147115775542534,204.0,130.0,58.16626305129668,0.0,0,0.0,,,,,,
115.0,2.4321528347436403,205.0,130.0,56.50436982125964,0.0,0,0.0,,,,,,
116.0,2.4501147264759937,206.0,130.0,54.84247659122259,0.0,0,0.0,,,,,,
117.0,2.468629291800112,207.0,130.0,53.18058336118555,0.0,0,0.0,,,,,,
118.0,2.487731621102774,208.0,130.0,51.5186901311485,0.0,0,0.0,,,,,,
119.0,2.507460256284211,209.0,130.0,49.85679690111146,0.0,0,0.0,,,,,,
120.0,2.5278576587599346,210.0,130.0,48.194903671074414,0.0,0,0.0,,,,,,
121.0,2.5489707595681397,211.0,130.0,46.53301044103737,0.0,0,0.0,,,,,,
122.0,2.570851609496643,212.0,130.0,44.871117211000325,0.0,0,0.0,,,,,,
123.0,2.593558151875279,213.0,130.0,43.20922398096328,0.0,0,0.0,,,,,,
124.0,2.6171551468962138,214.0,130.0,41.547330750926236,0.0,0,0.0,,,,,,
125.0,2.6417152845710645,215.0,130.0,39.88543752088919,0.0,0,0.0,,,,,,
126.0,2.667320534487398,216.0,130.0,38.223544290852146,0.0,0,0.0,,,,,,
127.0,2.6940637955111244,217.0,130.0,36.5616510608151,0.0,0,-0.0,,,,,,
128.0,2.722050929140605,218.0,130.0,34.89975783077806,0.0,0,-0.0,,,,,,
129.0,2.7514032888007924,219.0,130.0,33.23786460074101,0.0,0,-0.0,,,,,,
130.0,2.782260897674323,220.0,130.0,31.57597137070397,0.0,0,-0.0,,,,,,
131.0,2.814786485405882,221.0,130.0,29.91407814066693,0.0,0,-0.0,,,,,,
132.0,2.849170678150673,222.0,130.0,28.25218491062989,0.0,0,-0.0,,,,,,
133.0,2.885638761364845,223.0,130.0,26.59029168059285,0.0,0,-0.0,,,,,,
134.0,2.924459624141222,224.0,130.0,24.928398450555807,0.0,0,-0.0,,,,,,
135.0,2.965957787798728,225.0,130.0,23.266505220518766,0.0,0,-0.0,,,,,,
136.0,3.010529889504938,226.0,130.0,21.604611990481725,0.0,0,-0.0,,,,,,
137.0,3.0586677593476455,227.0,130.0,19.942718760444684,0.0,0,-0.0,,,,,,
138.0,3.1109915309158054,228.0,130.0,18.280825530407643,0.0,0,-0.0,,,,,,
139.0,3.16829851882379,229.0,130.0,16.618932300370602,0.0,0,-0.0,,,,,,
140.0,3.2316378212484045,230.0,130.0,14.95703907033356,0.0,0,-0.0,,,,,,
141.0,3.302428806311209,231.0,130.0,13.295145840296517,0.0,0,0.0,,,,,,
142.0,3.3814953597371984,232.0,130.0,12.0,0.0,0,0.0,,,,,,
143.0,3.464828693070532,233.0,130.0,12.0,0.0,0,0.0,,,,,,
144.0,3.5481620264038654,234.0,130.0,12.0,0.0,0,0.0,,,,,,
145.0,3.631495359737199,235.0,130.0,12.0,0.0,0,0.0,,,,,,
146.0,3.7148286930705323,236.0,130.0,12.0,0.0,0,0.0,,,,,,
147.0,3.798162026403866,237.0,130.0,12.0,0.0,0,0.0,,,,,,
148.0,3.8814953597371993,238.0,130.0,12.0,0.0,0,0.0,,,,,,
149.0,3.9648286930705328,239.0,130.0,12.0,0.0,0,0.0,,,,,,
150.0,4.131495359737199,240.0,130.0,0.0,0.0,0,0.0,,,,,,
