Distance (in),Time (s),X (in),Y (in),Velocity (in/s),Orientation (deg),Touch,Rotational Velocity (deg/s),Way X (in),Way Y (in),Way Velocity (in/s),Way Orientation (deg),Way Turn Radius (in),Touch this Point
0.0,0.0,74.0,140.6,12.0,0.0,0,0.0,74.0,140.6,12.0,0.0,3.0,0.0
1.0000000000000013,0.07744361173672266,74.99953718350083,140.63042069688916,13.82524181334935,0.0,0,0.0,120.0,142.0,96.0,0.0,20.0,0.0
2.0000000000000027,0.1452960554049163,75.99907436700167,140.66084139377833,15.650483626698701,0.0,0,0.0,200.0,142.0,96.0,0.0,3.0,0.0
3.000000000000004,0.20567121019459228,76.9986115505025,140.6912620906675,17.475725440048052,0.0,0,0.0,282.0,142.0,12.0,0.0,3.0,0.0
4.000000000000005,0.26005347933094813,77.99814873400334,140.72168278755666,19.300967253397403,0.0,0,0.0,,,,,,
5.000000000000007,0.3095251511628351,78.99768591750417,140.75210348444583,21.126209066746753,0.0,0,0.0,,,,,,
6.000000000000009,0.3548996107510251,79.997223101005,140.782524181335,22.951450880096104,0.0,0,0.0,,,,,,
7.000000000000011,0.39680360806276466,80.99676028450584,140.81294487822416,24.776692693445455,0.0,0,0.0,,,,,,
8.000000000000012,0.4357303001327048,81.99629746800667,140.84336557511332,26.601934506794805,0.0,0,-0.0,,,,,,
9.000000000000014,0.47207469985033435,82.99583465150751,140.8737862720025,28.427176320144156,0.0,0,-0.0,,,,,,
10.000000000000016,0.5061580983233792,83.99537183500834,140.90420696889166,30.252418133493507,0.0,0,-0.0,,,,,,
11.000000000000018,0.5382453355224444,84.99490901850918,140.93462766578082,32.07765994684286,0.0,0,-0.0,,,,,,
12.00000000000002,0.5685572932908602,85.99444620201001,140.96504836267,33.90290176019221,0.0,0,-0.0,,,,,,
13.000000000000021,0.5972801135560771,86.99398338551084,140.99546905955916,35.72814357354156,0.0,0,-0.0,,,,,,
14.000000000000023,0.6245721205375346,87.99352056901168,141.02588975644832,37.55338538689091,0.0,0,-0.0,,,,,,
15.000000000000025,0.6505691006338873,88.99305775251251,141.0563104533375,39.37862720024026,0.0,0,-0.0,,,,,,
16.000000000000025,0.6753883863841437,89.99259493601335,141.08673115022665,41.20386901358961,0.0,0,-0.0,,,,,,
17.000000000000025,0.69913205547654,90.99213211951418,141.11715184711582,43.02911082693896,0.0,0,-0.0,,,,,,
18.000000000000025,0.7218894653588419,91.99166930301502,141.147572544005,44.85435264028831,0.0,0,-0.0,,,,,,
19.000000000000025,0.7437392824321485,92.99120648651585,141.17799324089415,46.67959445363766,0.0,0,-0.0,,,,,,
20.000000000000025,0.7647511221296531,93.99074367001668,141.20841393778332,48.50483626698701,0.0,0,0.0,,,,,,
21.000000000000025,0.7849868861125271,94.99028085351752,141.2388346346725,50.330078080336364,0.0,0,0.0,,,,,,
22.000000000000025,0.804501861314233,95.98981803701835,141.26925533156165,52.155319893685714,0.0,0,0.0,,,,,,
23.000000000000025,0.8233456299798,96.98935522051919,141.29967602845082,53.980561707035065,0.0,0,0.0,,,,,,
24.000000000000025,0.841562828407465,97.98889240402002,141.33009672533998,55.805803520384416,0.0,0,0.0,,,,,,
25.000000000000025,0.8591937836059124,98.98842958752086,141.36051742222915,57.631045333733766,0.0,0,0.0,,,,,,
26.000000000000025,0.8762750507047906,99.98796677102169,141.39093811911832,59.45628714708312,0.0,0,0.0,,,,,,
27.000000000000025,0.8928398691227337,100.98750395452252,141.42135881600748,61.28152896043247,0.0,0,0.0,,,,,,
28.000000000000025,0.9089185517984636,101.98704113802336,141.45177951289665,63.10677077378182,0.0,0,0.0,,,,,,
29.000000000000025,0.924538818935511,102.98657832152419,141.48220020978582,64.93201258713117,0.0,0,0.0,,,,,,
30.000000000000025,0.9397260854891941,103.98611550502503,141.51262090667498,66.75725440048052,0.0,0,0.0,,,,,,
31.000000000000025,0.9545037098820421,104.98565268852586,141.54304160356415,68.58249621382987,0.0,0,0.0,,,,,,
32.00000000000003,0.9688932100575149,105.9851898720267,141.57346230045331,70.40773802717922,0.0,0,0.0,,,,,,
33.00000000000003,0.9829144518873191,106.98472705552753,141.60388299734248,72.23297984052857,0.0,0,0.0,,,,,,
34.00000000000003,0.9965858140715751,107.98426423902836,141.63430369423165,74.05822165387792,0.0,0,0.0,,,,,,
35.00000000000003,1.009924332965668,108.9838014225292,141.6647243911208,75.88346346722727,0.0,0,0.0,,,,,,
36.00000000000003,1.0229458301963241,109.98333860603003,141.69514508800998,77.70870528057662,0.0,0,0.0,,,,,,
37.00000000000003,1.0356650254642634,110.98287578953087,141.72556578489915,79.53394709392597,0.0,0,0.0,,,,,,
38.00000000000003,1.0480956365500282,111.9824129730317,141.7559864817883,81.35918890727532,0.0,0,0.0,,,,,,
39.00000000000003,1.0602504682264118,112.98195015653253,141.78640717867748,83.18443072062468,0.0,0,0.0,,,,,,
40.00000000000003,1.072141491522113,113.98148734003337,141.81682787556664,85.00967253397403,0.0,0,0.0,,,,,,
41.00000000000003,1.0837799145664275,114.9810245235342,141.8472485724558,86.83491434732338,0.0,0,0.0,,,,,,
42.00000000000003,1.0951762460657153,115.98056170703504,141.87766926934498,88.66015616067273,0.0,0,0.0,,,,,,
43.00000000000003,1.1063403523125064,116.98009889053587,141.90808996623414,90.48539797402208,0.0,0,0.0,,,,,,
44.00000000000003,1.1172815085021752,117.9796360740367,141.9385106631233,92.31063978737143,0.0,0,0.0,,,,,,
45.00000000000003,1.1280084450259034,118.97917325753754,141.96893136001248,94.13588160072078,0.0,0,0.0,,,,,,
46.00000000000003,1.1385293893187627,119.97871044103837,141.99935205690164,95.96112341407013,0.0,0,0.0,,,,,,
46.02129941668311,1.1387513146914325,120.0,142.0,95.9900395092863,0.0,0,0.0,,,,,,
47.02129941668311,1.149168521777341,121.0,142.0,96.0,0.0,0,0.0,,,,,,
48.02129941668311,1.1595851884440078,122.0,142.0,96.0,0.0,0,0.0,,,,,,
49.02129941668311,1.1700018551106746,123.0,142.0,96.0,0.0,0,0.0,,,,,,
50.02129941668311,1.1804185217773413,124.0,142.0,96.0,0.0,0,0.0,,,,,,
51.02129941668311,1.190835188444008,125.0,142.0,96.0,0.0,0,0.0,,,,,,
52.02129941668311,1.2012518551106748,126.0,142.0,96.0,0.0,0,0.0,,,,,,
53.02129941668311,1.2116685217773415,127.0,142.0,96.0,0.0,0,0.0,,,,,,
54.02129941668311,1.2220851884440083,128.0,142.0,96.0,0.0,0,0.0,,,,,,
55.02129941668311,1.232501855110675,129.0,142.0,96.0,0.0,0,0.0,,,,,,
56.02129941668311,1.2429185217773417,130.0,142.0,96.0,0.0,0,0.0,,,,,,
57.02129941668311,1.2533351884440085,131.0,142.0,96.0,0.0,0,0.0,,,,,,
58.02129941668311,1.2637518551106752,132.0,142.0,96.0,0.0,0,0.0,,,,,,
59.02129941668311,1.274168521777342,133.0,142.0,96.0,0.0,0,0.0,,,,,,
60.02129941668311,1.2845851884440087,134.0,142.0,96.0,0.0,0,0.0,,,,,,
61.02129941668311,1.2950018551106754,135.0,142.0,96.0,0.0,0,0.0,,,,,,
62.02129941668311,1.3054185217773422,136.0,142.0,96.0,0.0,0,0.0,,,,,,
63.02129941668311,1.315835188444009,137.0,142.0,96.0,0.0,0,0.0,,,,,,
64.0212994166831,1.3262518551106757,138.0,142.0,96.0,0.0,0,0.0,,,,,,
65.0212994166831,1.3366685217773424,139.0,142.0,96.0,0.0,0,0.0,,,,,,
66.0212994166831,1.3470851884440092,140.0,142.0,96.0,0.0,0,0.0,,,,,,
67.0212994166831,1.357501855110676,141.0,142.0,96.0,0.0,0,0.0,,,,,,
68.0212994166831,1.3679185217773426,142.0,142.0,96.0,0.0,0,0.0,,,,,,
69.0212994166831,1.3783351884440094,143.0,142.0,96.0,0.0,0,0.0,,,,,,
70.0212994166831,1.3887518551106761,144.0,142.0,96.0,0.0,0,0.0,,,,,,
71.0212994166831,1.3991685217773429,145.0,142.0,96.0,0.0,0,0.0,,,,,,
72.0212994166831,1.4095851884440096,146.0,142.0,96.0,0.0,0,0.0,,,,,,
73.0212994166831,1.4200018551106763,147.0,142.0,96.0,0.0,0,0.0,,,,,,
74.0212994166831,1.430418521777343,148.0,142.0,96.0,0.0,0,-0.0,,,,,,
75.0212994166831,1.4408351884440098,149.0,142.0,96.0,0.0,0,-0.0,,,,,,
76.0212994166831,1.4512518551106766,150.0,142.0,96.0,0.0,0,-0.0,,,,,,
77.0212994166831,1.4616685217773433,151.0,142.0,96.0,0.0,0,-0.0,,,,,,
78.0212994166831,1.47208518844401,152.0,142.0,96.0,0.0,0,-0.0,,,,,,
79.0212994166831,1.4825018551106768,153.0,142.0,96.0,0.0,0,-0.0,,,,,,
80.0212994166831,1.4929185217773435,154.0,142.0,96.0,0.0,0,-0.0,,,,,,
81.0212994166831,1.5033351884440103,155.0,142.0,96.0,0.0,0,-0.0,,,,,,
82.0212994166831,1.513751855110677,156.0,142.0,96.0,0.0,0,-0.0,,,,,,
83.0212994166831,1.5241685217773437,157.0,142.0,96.0,0.0,0,-0.0,,,,,,
84.0212994166831,1.5345851884440105,158.0,142.0,96.0,0.0,0,-0.0,,,,,,
85.0212994166831,1.5450018551106772,159.0,142.0,96.0,0.0,0,-0.0,,,,,,
86.0212994166831,1.555418521777344,160.0,142.0,96.0,0.0,0,-0.0,,,,,,
87.0212994166831,1.5658351884440107,161.0,142.0,96.0,0.0,0,-0.0,,,,,,
88.0212994166831,1.5762518551106774,162.0,142.0,96.0,0.0,0,-0.0,,,,,,
89.0212994166831,1.5866685217773442,163.0,142.0,96.0,0.0,0,-0.0,,,,,,
90.0212994166831,1.597085188444011,164.0,142.0,96.0,0.0,0,-0.0,,,,,,
91.0212994166831,1.6075018551106777,165.0,142.0,96.0,0.0,0,-0.0,,,,,,
92.0212994166831,1.6179185217773444,166.0,142.0,96.0,0.0,0,-0.0,,,,,,
93.0212994166831,1.6283351884440112,167.0,142.0,96.0,0.0,0,-0.0,,,,,,
94.0212994166831,1.638751855110678,168.0,142.0,96.0,0.0,0,-0.0,,,,,,
95.0212994166831,1.6491685217773446,169.0,142.0,96.0,0.0,0,-0.0,,,,,,
96.0212994166831,1.6595851884440114,170.0,142.0,96.0,0.0,0,-0.0,,,,,,
97.0212994166831,1.6700018551106781,171.0,142.0,96.0,0.0,0,-0.0,,,,,,
98.0212994166831,1.6804185217773449,172.0,142.0,96.0,0.0,0,0.0,,,,,,
99.0212994166831,1.6908351884440116,173.0,142.0,96.0,0.0,0,0.0,,,,,,
100.0212994166831,1.7012518551106783,174.0,142.0,96.0,0.0,0,0.0,,,,,,
101.0212994166831,1.711668521777345,175.0,142.0,96.0,0.0,0,0.0,,,,,,
102.0212994166831,1.7220851884440118,176.0,142.0,96.0,0.0,0,0.0,,,,,,
103.0212994166831,1.7325018551106786,177.0,142.0,96.0,0.0,0,0.0,,,,,,
104.0212994166831,1.7429185217773453,178.0,142.0,96.0,0.0,0,0.0,,,,,,
105.0212994166831,1.753335188444012,179.0,142.0,96.0,0.0,0,0.0,,,,,,
106.0212994166831,1.7637518551106788,180.0,142.0,96.0,0.0,0,0.0,,,,,,
107.0212994166831,1.7741685217773455,181.0,142.0,96.0,0.0,0,0.0,,,,,,
108.0212994166831,1.7845851884440123,182.0,142.0,96.0,0.0,0,0.0,,,,,,
109.0212994166831,1.795001855110679,183.0,142.0,96.0,0.0,0,0.0,,,,,,
110.0212994166831,1.8054185217773457,184.0,142.0,96.0,0.0,0,0.0,,,,,,
111.0212994166831,1.8158351884440125,185.0,142.0,96.0,0.0,0,0.0,,,,,,
112.0212994166831,1.8262518551106792,186.0,142.0,96.0,0.0,0,0.0,,,,,,
113.0212994166831,1.836668521777346,187.0,142.0,96.0,0.0,0,0.0,,,,,,
114.0212994166831,1.8470851884440127,188.0,142.0,96.0,0.0,0,0.0,,,,,,
115.0212994166831,1.8575018551106794,189.0,142.0,96.0,0.0,0,0.0,,,,,,
116.0212994166831,1.8679185217773462,190.0,142.0,96.0,0.0,0,0.0,,,,,,
117.0212994166831,1.878335188444013,191.0,142.0,96.0,0.0,0,0.0,,,,,,
118.0212994166831,1.8887518551106797,192.0,142.0,96.0,0.0,0,0.0,,,,,,
119.0212994166831,1.8991685217773464,193.0,142.0,96.0,0.0,0,0.0,,,,,,
120.0212994166831,1.9095851884440131,194.0,142.0,96.0,0.0,0,0.0,,,,,,
121.0212994166831,1.92000185511068,195.0,142.0,96.0,0.0,0,0.0,,,,,,
122.0212994166831,1.9304185217773466,196.0,142.0,96.0,0.0,0,0.0,,,,,,
123.0212994166831,1.9408351884440134,197.0,142.0,96.0,0.0,0,0.0,,,,,,
124.0212994166831,1.9512518551106801,198.0,142.0,96.0,0.0,0,0.0,,,,,,
125.0212994166831,1.9616685217773469,199.0,142.0,96.0,0.0,0,0.0,,,,,,
126.0212994166831,1.9721410632843712,200.0,142.0,94.97560975609755,0.0,0,0.0,,,,,,
127.0212994166831,1.9827271722438342,201.0,142.0,93.95121951219511,0.0,0,0.0,,,,,,
128.02129941668312,1.9934293387799868,202.0,142.0,92.92682926829265,0.0,0,0.0,,,,,,
129.02129941668312,2.0042501358240616,203.0,142.0,91.9024390243902,0.0,0,0.0,,,,,,
130.02129941668312,2.015192222826997,204.0,142.0,90.87804878048776,0.0,0,0.0,,,,,,
131.02129941668312,2.026258349682598,205.0,142.0,89.85365853658531,0.0,0,0.0,,,,,,
132.02129941668312,2.0374513608756093,206.0,142.0,88.82926829268287,0.0,0,0.0,,,,,,
133.02129941668312,2.0487741998703624,207.0,142.0,87.80487804878042,0.0,0,0.0,,,,,,
134.02129941668312,2.0602299137569227,208.0,142.0,86.78048780487798,0.0,0,0.0,,,,,,
135.02129941668312,2.0718216581730946,209.0,142.0,85.75609756097553,0.0,0,0.0,,,,,,
136.02129941668312,2.0835527025221645,210.0,142.0,84.73170731707309,0.0,0,0.0,,,,,,
137.02129941668312,2.095426435507974,211.0,142.0,83.70731707317064,0.0,0,0.0,,,,,,
138.02129941668312,2.107446371010759,212.0,142.0,82.6829268292682,0.0,0,0.0,,,,,,
139.02129941668312,2.119616154329251,213.0,142.0,81.65853658536575,0.0,0,0.0,,,,,,
140.02129941668312,2.1319395688167773,214.0,142.0,80.6341463414633,0.0,0,0.0,,,,,,
141.02129941668312,2.144420542941587,215.0,142.0,79.60975609756086,0.0,0,0.0,,,,,,
142.02129941668312,2.157063157804368,216.0,142.0,78.58536585365842,0.0,0,0.0,,,,,,
143.02129941668312,2.169871655148948,217.0,142.0,77.56097560975597,0.0,0,0.0,,,,,,
144.02129941668312,2.1828504459055167,218.0,142.0,76.53658536585353,0.0,0,0.0,,,,,,
145.02129941668312,2.1960041193094306,219.0,142.0,75.51219512195108,0.0,0,0.0,,,,,,
146.02129941668312,2.209337452642764,220.0,142.0,74.48780487804864,0.0,0,0.0,,,,,,
147.02129941668312,2.222855421650347,221.0,142.0,73.46341463414619,0.0,0,0.0,,,,,,
148.02129941668312,2.236563211687124,222.0,142.0,72.43902439024374,0.0,0,0.0,,,,,,
149.02129941668312,2.250466229659318,223.0,142.0,71.4146341463413,0.0,0,0.0,,,,,,
150.02129941668312,2.264570116828221,224.0,142.0,70.39024390243885,0.0,0,0.0,,,,,,
151.02129941668312,2.278880762552479,225.0,142.0,69.36585365853641,0.0,0,0.0,,,,,,
152.02129941668312,2.293404319052656,226.0,142.0,68.34146341463396,0.0,0,0.0,,,,,,
153.02129941668312,2.3081472172907,227.0,142.0,67.31707317073152,0.0,0,0.0,,,,,,
154.02129941668312,2.3231161840668957,228.0,142.0,66.29268292682907,0.0,0,0.0,,,,,,
155.02129941668312,2.33831826044806,229.0,142.0,65.26829268292663,0.0,0,0.0,,,,,,
156.02129941668312,2.3537608216533332,230.0,142.0,64.24390243902418,0.0,0,0.0,,,,,,
157.02129941668312,2.36945159853814,231.0,142.0,63.219512195121744,0.0,0,0.0,,,,,,
158.02129941668312,2.385398700832967,232.0,142.0,62.195121951219306,0.0,0,0.0,,,,,,
159.02129941668312,2.4016106423118124,233.0,142.0,61.17073170731687,0.0,0,0.0,,,,,,
160.02129941668312,2.4180963680858376,234.0,142.0,60.14634146341443,0.0,0,0.0,,,,,,
161.02129941668312,2.434865284241257,235.0,142.0,59.12195121951199,0.0,0,0.0,,,,,,
162.02129941668312,2.451927290067308,236.0,142.0,58.097560975609554,0.0,0,0.0,,,,,,
163.02129941668312,2.469292813150747,237.0,142.0,57.073170731707116,0.0,0,0.0,,,,,,
164.02129941668312,2.4869728476483752,238.0,142.0,56.04878048780468,0.0,0,0.0,,,,,,
165.02129941668312,2.5049789960893065,239.0,142.0,55.02439024390224,0.0,0,0.0,,,,,,
166.02129941668312,2.5233235151049667,240.0,142.0,53.9999999999998,0.0,0,0.0,,,,,,
167.02129941668312,2.542019365538163,241.0,142.0,52.97560975609736,0.0,0,0.0,,,,,,
168.02129941668312,2.5610802674442534,242.0,142.0,51.951219512194925,0.0,0,0.0,,,,,,
169.02129941668312,2.580520760568957,243.0,142.0,50.92682926829249,0.0,0,0.0,,,,,,
170.02129941668312,2.6003562709705053,244.0,142.0,49.90243902439005,0.0,0,0.0,,,,,,
171.02129941668312,2.6206031845507525,245.0,142.0,48.87804878048761,0.0,0,0.0,,,,,,
172.02129941668312,2.641278928373244,246.0,142.0,47.85365853658517,0.0,0,0.0,,,,,,
173.02129941668312,2.66240206077922,247.0,142.0,46.829268292682734,0.0,0,0.0,,,,,,
174.02129941668312,2.683992371469057,248.0,142.0,45.804878048780296,0.0,0,0.0,,,,,,
175.02129941668312,2.706070992901475,249.0,142.0,44.78048780487786,0.0,0,-0.0,,,,,,
176.02129941668312,2.7286605245819158,250.0,142.0,43.75609756097542,0.0,0,-0.0,,,,,,
177.02129941668312,2.7517851720720454,251.0,142.0,42.73170731707298,0.0,0,-0.0,,,,,,
178.02129941668312,2.7754709028634954,252.0,142.0,41.70731707317054,0.0,0,-0.0,,,,,,
179.02129941668312,2.7997456216319976,253.0,142.0,40.682926829268105,0.0,0,-0.0,,,,,,
180.02129941668312,2.8246393678372193,254.0,142.0,39.65853658536567,0.0,0,-0.0,,,,,,
181.02129941668312,2.8501845391767833,255.0,142.0,38.63414634146323,0.0,0,-0.0,,,,,,
182.02129941668312,2.8764161450628998,256.0,142.0,37.60975609756079,0.0,0,-0.0,,,,,,
183.02129941668312,2.903372095095773,257.0,142.0,36.58536585365835,0.0,0,-0.0,,,,,,
184.02129941668312,2.93109352849672,258.0,142.0,35.560975609755914,0.0,0,-0.0,,,,,,
185.02129941668312,2.959625191683916,259.0,142.0,34.536585365853476,0.0,0,-0.0,,,,,,
186.02129941668312,2.9890158726875002,260.0,142.0,33.51219512195104,0.0,0,-0.0,,,,,,
187.02129941668312,3.0193189029905305,261.0,142.0,32.4878048780486,0.0,0,-0.0,,,,,,
188.02129941668312,3.0505927397563584,262.0,142.0,31.46341463414616,0.0,0,-0.0,,,,,,
189.02129941668312,3.082901644405689,263.0,142.0,30.439024390243723,0.0,0,-0.0,,,,,,
190.02129941668312,3.1163164773315244,264.0,142.0,29.414634146341285,0.0,0,-0.0,,,,,,
191.02129941668312,3.150915633449668,265.0,142.0,28.390243902438847,0.0,0,-0.0,,,,,,
192.02129941668312,3.1867861496351453,266.0,142.0,27.36585365853641,0.0,0,-0.0,,,,,,
193.02129941668312,3.224025023386281,267.0,142.0,26.34146341463397,0.0,0,-0.0,,,,,,
194.02129941668312,3.262740792980238,268.0,142.0,25.317073170731533,0.0,0,-0.0,,,,,,
195.02129941668312,3.3030554439143582,269.0,142.0,24.292682926829094,0.0,0,0.0,,,,,,
196.02129941668312,3.3451067259656404,270.0,142.0,23.268292682926656,0.0,0,0.0,,,,,,
197.02129941668312,3.3890509917748584,271.0,142.0,22.243902439024218,0.0,0,0.0,,,,,,
198.02129941668312,3.4350667044572383,272.0,142.0,21.21951219512178,0.0,0,0.0,,,,,,
199.02129941668312,3.4833588128200184,273.0,142.0,20.195121951219342,0.0,0,0.0,,,,,,
200.02129941668312,3.53416426511246,274.0,142.0,19.170731707316904,0.0,0,0.0,,,,,,
201.02129941668312,3.587759036354291,275.0,142.0,18.146341463414466,0.0,0,0.0,,,,,,
202.02129941668312,3.644467196796892,276.0,142.0,17.121951219512027,0.0,0,0.0,,,,,,
203.02129941668312,3.704672776826261,277.0,142.0,16.09756097560959,0.0,0,0.0,,,,,,
204.02129941668312,3.768835531129861,278.0,142.0,15.073170731707151,0.0,0,0.0,,,,,,
205.02129941668312,3.837512248047785,279.0,142.0,14.048780487804713,0.0,0,0.0,,,,,,
206.02129941668312,3.9113861219216597,280.0,142.0,13.024390243902275,0.0,0,0.0,,,,,,
207.02129941668312,3.9913081492121085,281.0,142.0,12.0,0.0,0,0.0,,,,,,
208.02129941668312,4.074641482545442,282.0,142.0,12.0,0.0,0,0.0,,,,,,
