Distance (in),Time (s),X (in),Y (in),Velocity (in/s),Orientation (deg),Touch,Rotational Velocity (deg/s),Way X (in),Way Y (in),Way Velocity (in/s),Way Orientation (deg),Way Turn Radius (in),Touch this Point
0.0,0.0,74.0,194.0,12.0,0.0,0,0.0,74.0,194.0,12.0,0.0,3.0,0
1.0000000000000002,0.07894732278610701,74.98200644698065,193.81115260634988,13.333347977088799,0.0,0,0.0,100.0,189.0,48.0,0.0,20.0,0
2.0000000000000004,0.15037578214529718,75.9640128939613,193.62230521269976,14.666695954177598,0.0,0,0.0,200.0,189.0,96.0,0.0,3.0,0.0
3.000000000000001,0.2155930177390064,76.94601934094194,193.43345781904964,16.000043931266397,0.0,0,0.0,282.0,189.0,12.0,0.0,3.0,0.0
4.000000000000001,0.27559283322825495,77.92802578792259,193.24461042539951,17.333391908355196,0.0,0,0.0,,,,,,
5.000000000000001,0.3311481853990625,78.91003223490324,193.0557630317494,18.666739885443995,0.0,0,0.0,,,,,,
6.000000000000001,0.3828721078536178,79.89203868188389,192.86691563809927,20.000087862532794,0.0,0,-0.0,,,,,,
7.000000000000001,0.4312589817725176,80.87404512886454,192.67806824444915,21.333435839621593,0.0,0,-0.0,,,,,,
8.000000000000002,0.4767133003104976,81.85605157584519,192.48922085079903,22.666783816710392,0.0,0,-0.0,,,,,,
9.000000000000002,0.5195702145469635,82.83805802282583,192.3003734571489,24.00013179379919,0.0,0,-0.0,,,,,,
10.000000000000002,0.56011052644725,83.82006446980648,192.1115260634988,25.33347977088799,0.0,0,-0.0,,,,,,
11.000000000000002,0.5985718374553519,84.80207091678713,191.92267866984866,26.66682774797679,0.0,0,-0.0,,,,,,
12.000000000000002,0.6351569779045856,85.78407736376778,191.73383127619854,28.00017572506559,0.0,0,-0.0,,,,,,
13.000000000000002,0.6700404760911769,86.76608381074843,191.54498388254842,29.333523702154388,0.0,0,0.0,,,,,,
14.000000000000002,0.7033735897696257,87.74809025772907,191.3561364888983,30.666871679243187,0.0,0,0.0,,,,,,
15.000000000000002,0.7352882671126386,88.73009670470972,191.16728909524818,32.000219656331986,0.0,0,0.0,,,,,,
16.000000000000004,0.7659002993086306,89.71210315169037,190.97844170159806,33.333567633420785,0.0,0,0.0,,,,,,
17.000000000000004,0.7953118550004574,90.69410959867102,190.78959430794794,34.666915610509584,0.0,0,0.0,,,,,,
18.000000000000004,0.8236135365263778,91.67611604565167,190.60074691429782,36.00026358759838,0.0,0,0.0,,,,,,
19.000000000000004,0.8508860622976777,92.65812249263232,190.4118995206477,37.33361156468718,0.0,0,0.0,,,,,,
20.000000000000004,0.8772016540213026,93.64012893961296,190.22305212699757,38.66695954177598,0.0,0,0.0,,,,,,
21.000000000000004,0.902625188799221,94.62213538659361,190.03420473334745,40.00030751886478,0.0,0,0.0,,,,,,
22.000000000000004,0.9272151623584293,95.60414183357426,189.84535733969733,41.33365549595358,0.0,0,0.0,,,,,,
23.000000000000004,0.9510244993868231,96.58614828055491,189.6565099460472,42.66700347304238,0.0,0,0.0,,,,,,
24.000000000000004,0.9741012392016346,97.56815472753556,189.4676625523971,44.00035145013118,0.0,0,0.0,,,,,,
24.99991179403159,0.9964871738056945,98.55093360432166,189.28335499643012,45.333581817970426,0.0,0,0.0,,,,,,
25.999807630620094,1.0182239517545417,99.54054762480527,189.14033131136614,46.66679090898522,0.0,0,0.0,,,,,,
26.999703467208583,1.0392869866242822,100.53607309041931,189.04694645530824,48.27639679137352,0.0,0,0.0,,,,,,
27.999703467208583,1.05966135190604,101.53607309041931,189.04694645530824,49.88617035326779,0.0,0,0.0,,,,,,
28.999703467208583,1.079388697448515,102.53607309041931,189.04694645530824,51.49594391516205,0.0,0,0.0,,,,,,
29.999703467208583,1.098508852648543,103.53607309041931,189.04694645530824,53.10571747705632,0.0,0,0.0,,,,,,
30.999703467208583,1.1170580789791222,104.53607309041931,189.04694645530824,54.71549103895058,0.0,0,0.0,,,,,,
31.999703467208583,1.135069483786991,105.53607309041931,189.04694645530824,56.32526460084485,0.0,0,0.0,,,,,,
32.99970346720858,1.1525733757917076,106.53607309041931,189.04694645530824,57.93503816273911,0.0,0,0.0,,,,,,
33.99970346720858,1.16959757187229,107.53607309041931,189.04694645530824,59.54481172463338,0.0,0,0.0,,,,,,
34.99970346720858,1.1861676629375755,108.53607309041931,189.04694645530824,61.15458528652764,0.0,0,0.0,,,,,,
35.99970346720858,1.2023072452585963,109.53607309041931,189.04694645530824,62.76435884842191,0.0,0,0.0,,,,,,
36.99970346720858,1.2180381225106303,110.53607309041931,189.04694645530824,64.37413241031618,0.0,0,0.0,,,,,,
37.99970346720858,1.2333804828653567,111.53607309041931,189.04694645530824,65.98390597221045,0.0,0,0.0,,,,,,
38.99970346720858,1.2483530547412383,112.53607309041931,189.04694645530824,67.59367953410472,0.0,0,0.0,,,,,,
39.99970346720858,1.262973244225823,113.53607309041931,189.04694645530824,69.203453095999,0.0,0,0.0,,,,,,
40.99970346720858,1.2772572566985898,114.53607309041931,189.04694645530824,70.81322665789327,0.0,0,0.0,,,,,,
41.99970346720858,1.2912202047850954,115.53607309041931,189.04694645530824,72.42300021978754,0.0,0,0.0,,,,,,
42.99970346720858,1.3048762044453064,116.53607309041931,189.04694645530824,74.03277378168181,0.0,0,0.0,,,,,,
43.99970346720858,1.3182384607275313,117.53607309041931,189.04694645530824,75.64254734357608,0.0,0,0.0,,,,,,
44.99970346720858,1.3313193444936382,118.53607309041931,189.04694645530824,77.25232090547036,0.0,0,0.0,,,,,,
45.99970346720858,1.3441304612327527,119.53607309041931,189.04694645530824,78.86209446736463,0.0,0,0.0,,,,,,
46.99970346720858,1.3566827129226107,120.53607309041931,189.04694645530824,80.4718680292589,0.0,0,0.0,,,,,,
47.99970346720858,1.3689863537647575,121.53607309041931,189.04694645530824,82.08164159115317,0.0,0,0.0,,,,,,
48.99970346720858,1.3810510405074659,122.53607309041931,189.04694645530824,83.69141515304744,0.0,0,0.0,,,,,,
49.99970346720858,1.3928858779750413,123.53607309041931,189.04694645530824,85.30118871494172,0.0,0,0.0,,,,,,
50.99970346720858,1.404499460341221,124.53607309041931,189.04694645530824,86.91096227683599,0.0,0,0.0,,,,,,
51.99970346720858,1.4158999086152981,125.53607309041931,189.04694645530824,88.52073583873026,0.0,0,0.0,,,,,,
52.99970346720858,1.42709490475048,126.53607309041931,189.04694645530824,90.13050940062453,0.0,0,0.0,,,,,,
53.99970346720858,1.438091722733252,127.53607309041931,189.04694645530824,91.7402829625188,0.0,0,-0.0,,,,,,
54.99970346720858,1.4488972569688257,128.5360730904193,189.04694645530824,93.35005652441308,0.0,0,-0.0,,,,,,
55.99970346720858,1.459518048240048,129.5360730904193,189.04694645530824,94.95983008630735,0.0,0,-0.0,,,,,,
56.99970346720858,1.4699914551293194,130.5360730904193,189.04694645530824,96.0,0.0,0,-0.0,,,,,,
57.99970346720858,1.4804081217959861,131.5360730904193,189.04694645530824,96.0,0.0,0,-0.0,,,,,,
58.99970346720858,1.4908247884626529,132.5360730904193,189.04694645530824,96.0,0.0,0,-0.0,,,,,,
59.99970346720858,1.5012414551293196,133.5360730904193,189.04694645530824,96.0,0.0,0,-0.0,,,,,,
60.99970346720858,1.5116581217959864,134.5360730904193,189.04694645530824,96.0,0.0,0,-0.0,,,,,,
61.99970346720858,1.522074788462653,135.5360730904193,189.04694645530824,96.0,0.0,0,-0.0,,,,,,
62.99970346720858,1.5324914551293198,136.5360730904193,189.04694645530824,96.0,0.0,0,-0.0,,,,,,
63.99970346720858,1.5429081217959866,137.5360730904193,189.04694645530824,96.0,0.0,0,-0.0,,,,,,
64.99970346720858,1.553324788462653,138.5360730904193,189.04694645530824,96.0,0.0,0,-0.0,,,,,,
65.99970346720858,1.5637414551293198,139.5360730904193,189.04694645530824,96.0,0.0,0,-0.0,,,,,,
66.99970346720858,1.5741581217959866,140.5360730904193,189.04694645530824,96.0,0.0,0,-0.0,,,,,,
67.99970346720858,1.5845747884626533,141.5360730904193,189.04694645530824,96.0,0.0,0,-0.0,,,,,,
68.99970346720858,1.59499145512932,142.5360730904193,189.04694645530824,96.0,0.0,0,-0.0,,,,,,
69.99970346720858,1.6054081217959868,143.5360730904193,189.04694645530824,96.0,0.0,0,-0.0,,,,,,
70.99970346720858,1.6158247884626535,144.5360730904193,189.04694645530824,96.0,0.0,0,-0.0,,,,,,
71.99970346720858,1.6262414551293203,145.5360730904193,189.04694645530824,96.0,0.0,0,-0.0,,,,,,
72.99970346720858,1.636658121795987,146.5360730904193,189.04694645530824,96.0,0.0,0,-0.0,,,,,,
73.99970346720858,1.6470747884626538,147.5360730904193,189.04694645530824,96.0,0.0,0,-0.0,,,,,,
74.99970346720858,1.6574914551293205,148.5360730904193,189.04694645530824,96.0,0.0,0,-0.0,,,,,,
75.99970346720858,1.6679081217959872,149.5360730904193,189.04694645530824,96.0,0.0,0,-0.0,,,,,,
76.99970346720858,1.678324788462654,150.5360730904193,189.04694645530824,96.0,0.0,0,-0.0,,,,,,
77.99970346720858,1.6887414551293207,151.5360730904193,189.04694645530824,96.0,0.0,0,-0.0,,,,,,
78.99970346720858,1.6991581217959875,152.5360730904193,189.04694645530824,96.0,0.0,0,-0.0,,,,,,
79.99970346720858,1.7095747884626542,153.5360730904193,189.04694645530824,96.0,0.0,0,-0.0,,,,,,
80.99970346720858,1.719991455129321,154.5360730904193,189.04694645530824,96.0,0.0,0,-0.0,,,,,,
81.99970346720858,1.7304081217959877,155.5360730904193,189.04694645530824,96.0,0.0,0,-0.0,,,,,,
82.99970346720858,1.7408247884626544,156.5360730904193,189.04694645530824,96.0,0.0,0,-0.0,,,,,,
83.99970346720858,1.7512414551293212,157.5360730904193,189.04694645530824,96.0,0.0,0,-0.0,,,,,,
84.99970346720858,1.761658121795988,158.5360730904193,189.04694645530824,96.0,0.0,0,-0.0,,,,,,
85.99970346720858,1.7720747884626546,159.5360730904193,189.04694645530824,96.0,0.0,0,-0.0,,,,,,
86.99970346720858,1.7824914551293214,160.5360730904193,189.04694645530824,96.0,0.0,0,0.0,,,,,,
87.99970346720858,1.7929081217959881,161.5360730904193,189.04694645530824,96.0,0.0,0,0.0,,,,,,
88.99970346720858,1.8033247884626549,162.5360730904193,189.04694645530824,96.0,0.0,0,0.0,,,,,,
89.99970346720858,1.8137414551293216,163.5360730904193,189.04694645530824,96.0,0.0,0,0.0,,,,,,
90.99970346720858,1.8241581217959884,164.5360730904193,189.04694645530824,96.0,0.0,0,0.0,,,,,,
91.99970346720858,1.834574788462655,165.5360730904193,189.04694645530824,96.0,0.0,0,0.0,,,,,,
92.99970346720858,1.8449914551293218,166.5360730904193,189.04694645530824,96.0,0.0,0,0.0,,,,,,
93.99970346720858,1.8554081217959886,167.5360730904193,189.04694645530824,96.0,0.0,0,0.0,,,,,,
94.99970346720858,1.8658247884626553,168.5360730904193,189.04694645530824,96.0,0.0,0,0.0,,,,,,
95.99970346720858,1.876241455129322,169.5360730904193,189.04694645530824,96.0,0.0,0,0.0,,,,,,
96.99970346720858,1.8866581217959888,170.5360730904193,189.04694645530824,96.0,0.0,0,0.0,,,,,,
97.99970346720858,1.8970747884626555,171.5360730904193,189.04694645530824,96.0,0.0,0,0.0,,,,,,
98.99970346720858,1.9074914551293223,172.5360730904193,189.04694645530824,96.0,0.0,0,0.0,,,,,,
99.99970346720858,1.917908121795989,173.5360730904193,189.04694645530824,96.0,0.0,0,0.0,,,,,,
100.99970346720858,1.9283247884626558,174.5360730904193,189.04694645530824,96.0,0.0,0,0.0,,,,,,
101.99970346720858,1.9387414551293225,175.5360730904193,189.04694645530824,96.0,0.0,0,0.0,,,,,,
102.99970346720858,1.9491581217959892,176.5360730904193,189.04694645530824,96.0,0.0,0,0.0,,,,,,
103.99970346720858,1.959574788462656,177.5360730904193,189.04694645530824,96.0,0.0,0,0.0,,,,,,
104.99970346720858,1.9699914551293227,178.5360730904193,189.04694645530824,96.0,0.0,0,0.0,,,,,,
105.99970346720858,1.9804081217959895,179.5360730904193,189.04694645530824,96.0,0.0,0,0.0,,,,,,
106.99970346720858,1.9908247884626562,180.5360730904193,189.04694645530824,96.0,0.0,0,0.0,,,,,,
107.99970346720858,2.001241455129323,181.5360730904193,189.04694645530824,96.0,0.0,0,0.0,,,,,,
108.99970346720858,2.0116581217959895,182.5360730904193,189.04694645530824,96.0,0.0,0,0.0,,,,,,
109.99970346720858,2.022074788462656,183.5360730904193,189.04694645530824,96.0,0.0,0,0.0,,,,,,
110.99970346720858,2.0324914551293225,184.5360730904193,189.04694645530824,96.0,0.0,0,0.0,,,,,,
111.99970346720858,2.042908121795989,185.5360730904193,189.04694645530824,96.0,0.0,0,0.0,,,,,,
112.99970346720858,2.0533247884626555,186.5360730904193,189.04694645530824,96.0,0.0,0,0.0,,,,,,
113.99970346720858,2.063741455129322,187.5360730904193,189.04694645530824,96.0,0.0,0,0.0,,,,,,
114.99970346720858,2.0741581217959886,188.5360730904193,189.04694645530824,96.0,0.0,0,0.0,,,,,,
115.99970346720858,2.084574788462655,189.5360730904193,189.04694645530824,96.0,0.0,0,0.0,,,,,,
116.99970346720858,2.0949914551293216,190.5360730904193,189.04694645530824,96.0,0.0,0,0.0,,,,,,
117.99970346720858,2.105408121795988,191.5360730904193,189.04694645530824,96.0,0.0,0,0.0,,,,,,
118.99970346720858,2.1158247884626546,192.5360730904193,189.04694645530824,96.0,0.0,0,0.0,,,,,,
119.99970346720858,2.126241455129321,193.5360730904193,189.04694645530824,96.0,0.0,0,0.0,,,,,,
120.99970346720858,2.1366581217959877,194.5360730904193,189.04694645530824,96.0,0.0,0,0.0,,,,,,
121.99970346720858,2.147074788462654,195.5360730904193,189.04694645530824,96.0,0.0,0,0.0,,,,,,
122.99970346720858,2.1574914551293207,196.5360730904193,189.04694645530824,96.0,0.0,0,0.0,,,,,,
123.99970346720858,2.1679081217959872,197.5360730904193,189.04694645530824,96.0,0.0,0,0.0,,,,,,
124.99970346720858,2.1783247884626538,198.5360730904193,189.04694645530824,96.0,0.0,0,0.0,,,,,,
125.99970346720858,2.1887414551293203,199.5360730904193,189.04694645530824,96.0,0.0,0,0.0,,,,,,
126.46599966824296,2.1936108215293557,200.0,189.0,95.5223307208916,0.0,0,0.0,,,,,,
127.46599966824296,2.2041360143805817,201.0,189.0,94.49794047698916,0.0,0,0.0,,,,,,
128.46599966824294,2.2147759257439743,202.0,189.0,93.47355023308673,0.0,0,0.0,,,,,,
129.46599966824294,2.2255330839072185,203.0,189.0,92.44915998918428,0.0,0,0.0,,,,,,
130.46599966824294,2.2364101016709017,204.0,189.0,91.42476974528184,0.0,0,0.0,,,,,,
131.46599966824294,2.2474096801576313,205.0,189.0,90.40037950137939,0.0,0,0.0,,,,,,
132.46599966824294,2.2585346128382033,206.0,189.0,89.37598925747695,0.0,0,0.0,,,,,,
133.46599966824294,2.26978778978983,207.0,189.0,88.3515990135745,0.0,0,0.0,,,,,,
134.46599966824294,2.281172202202667,208.0,189.0,87.32720876967205,0.0,0,0.0,,,,,,
135.46599966824294,2.292690947152219,209.0,189.0,86.30281852576961,0.0,0,0.0,,,,,,
136.46599966824294,2.3043472326566734,210.0,189.0,85.27842828186716,0.0,0,0.0,,,,,,
137.46599966824294,2.3161443830398154,211.0,189.0,84.25403803796472,0.0,0,0.0,,,,,,
138.46599966824294,2.3280858446219654,212.0,189.0,83.22964779406227,0.0,0,0.0,,,,,,
139.46599966824294,2.3401751917632994,213.0,189.0,82.20525755015983,0.0,0,0.0,,,,,,
140.46599966824294,2.352416133286073,214.0,189.0,81.18086730625738,0.0,0,0.0,,,,,,
141.46599966824294,2.364812519304617,215.0,189.0,80.15647706235494,0.0,0,0.0,,,,,,
142.46599966824294,2.3773683484945676,216.0,189.0,79.13208681845249,0.0,0,0.0,,,,,,
143.46599966824294,2.3900877758356827,217.0,189.0,78.10769657455005,0.0,0,0.0,,,,,,
144.46599966824294,2.4029751208657406,218.0,189.0,77.0833063306476,0.0,0,0.0,,,,,,
145.46599966824294,2.416034876486558,219.0,189.0,76.05891608674516,0.0,0,0.0,,,,,,
146.46599966824294,2.4292717183670414,220.0,189.0,75.03452584284271,0.0,0,0.0,,,,,,
147.46599966824294,2.442690514992516,221.0,189.0,74.01013559894027,0.0,0,0.0,,,,,,
148.46599966824294,2.456296338414372,222.0,189.0,72.98574535503782,0.0,0,0.0,,,,,,
149.46599966824294,2.4700944757594288,223.0,189.0,71.96135511113538,0.0,0,0.0,,,,,,
150.46599966824294,2.4840904415643643,224.0,189.0,70.93696486723293,0.0,0,0.0,,,,,,
151.46599966824294,2.4982899910072223,225.0,189.0,69.91257462333049,0.0,0,0.0,,,,,,
152.46599966824294,2.51269913411544,226.0,189.0,68.88818437942804,0.0,0,0.0,,,,,,
153.46599966824294,2.5273241510381848,227.0,189.0,67.8637941355256,0.0,0,0.0,,,,,,
154.46599966824294,2.542171608480115,228.0,189.0,66.83940389162315,0.0,0,0.0,,,,,,
155.46599966824294,2.5572483774042016,229.0,189.0,65.8150136477207,0.0,0,0.0,,,,,,
156.46599966824294,2.572561652123047,230.0,189.0,64.79062340381826,0.0,0,0.0,,,,,,
157.46599966824294,2.588118970911473,231.0,189.0,63.76623315991582,0.0,0,0.0,,,,,,
158.46599966824294,2.6039282382882027,232.0,189.0,62.74184291601338,0.0,0,0.0,,,,,,
159.46599966824294,2.61999774913148,233.0,189.0,61.717452672110944,0.0,0,0.0,,,,,,
160.46599966824294,2.6363362148128062,234.0,189.0,60.693062428208506,0.0,0,0.0,,,,,,
161.46599966824294,2.6529527915548967,235.0,189.0,59.66867218430607,0.0,0,0.0,,,,,,
162.46599966824294,2.669857111244961,236.0,189.0,58.64428194040363,0.0,0,0.0,,,,,,
163.46599966824294,2.687059314962901,237.0,189.0,57.61989169650119,0.0,0,0.0,,,,,,
164.46599966824294,2.7045700895166354,238.0,189.0,56.595501452598754,0.0,0,0.0,,,,,,
165.46599966824294,2.722400707314102,239.0,189.0,55.571111208696315,0.0,0,0.0,,,,,,
166.46599966824294,2.7405630699444252,240.0,189.0,54.54672096479388,0.0,0,0.0,,,,,,
167.46599966824294,2.759069755890157,241.0,189.0,53.52233072089144,0.0,0,0.0,,,,,,
168.46599966824294,2.7779340728495723,242.0,189.0,52.497940476989,0.0,0,0.0,,,,,,
169.46599966824294,2.7971701152140795,243.0,189.0,51.47355023308656,0.0,0,0.0,,,,,,
170.46599966824294,2.8167928273224847,244.0,189.0,50.449159989184125,0.0,0,0.0,,,,,,
171.46599966824294,2.8368180732031405,245.0,189.0,49.42476974528169,0.0,0,0.0,,,,,,
172.46599966824294,2.8572627136192477,246.0,189.0,48.40037950137925,0.0,0,0.0,,,,,,
173.46599966824294,2.878144691354649,247.0,189.0,47.37598925747681,0.0,0,0.0,,,,,,
174.46599966824294,2.899483125820883,248.0,189.0,46.35159901357437,0.0,0,-0.0,,,,,,
175.46599966824294,2.9212984182353368,249.0,189.0,45.327208769671934,0.0,0,-0.0,,,,,,
176.46599966824294,2.9436123688203066,250.0,189.0,44.302818525769496,0.0,0,-0.0,,,,,,
177.46599966824294,2.9664483077102015,251.0,189.0,43.27842828186706,0.0,0,-0.0,,,,,,
178.46599966824294,2.989831241537006,252.0,189.0,42.25403803796462,0.0,0,-0.0,,,,,,
179.46599966824294,3.0137880180025793,253.0,189.0,41.22964779406218,0.0,0,-0.0,,,,,,
180.46599966824294,3.0383475111529195,254.0,189.0,40.20525755015974,0.0,0,-0.0,,,,,,
181.46599966824294,3.063540830560024,255.0,189.0,39.180867306257305,0.0,0,-0.0,,,,,,
182.46599966824294,3.089401558211434,256.0,189.0,38.15647706235487,0.0,0,-0.0,,,,,,
183.46599966824294,3.1159660176314103,257.0,189.0,37.13208681845243,0.0,0,-0.0,,,,,,
184.46599966824294,3.1432735806435517,258.0,189.0,36.10769657454999,0.0,0,-0.0,,,,,,
185.46599966824294,3.1713670182744744,259.0,189.0,35.08330633064755,0.0,0,-0.0,,,,,,
186.46599966824294,3.200292903646318,260.0,189.0,34.058916086745114,0.0,0,-0.0,,,,,,
187.46599966824294,3.2301020763833335,261.0,189.0,33.034525842842676,0.0,0,-0.0,,,,,,
188.46599966824294,3.260850180158,262.0,189.0,32.01013559894024,0.0,0,-0.0,,,,,,
189.46599966824294,3.2925982876487283,263.0,189.0,30.9857453550378,0.0,0,-0.0,,,,,,
190.46599966824294,3.325413630539569,264.0,189.0,29.96135511113536,0.0,0,-0.0,,,,,,
191.46599966824294,3.359370456485276,265.0,189.0,28.936964867232923,0.0,0,-0.0,,,,,,
192.46599966824294,3.3945510404956702,266.0,189.0,27.912574623330485,0.0,0,-0.0,,,,,,
193.46599966824294,3.4310468853780254,267.0,189.0,26.888184379428047,0.0,0,-0.0,,,,,,
194.46599966824294,3.4689601552932583,268.0,189.0,25.86379413552561,0.0,0,-0.0,,,,,,
195.46599966824294,3.5084053989429607,269.0,189.0,24.83940389162317,0.0,0,0.0,,,,,,
196.46599966824294,3.5495116355633605,270.0,189.0,23.815013647720733,0.0,0,0.0,,,,,,
197.46599966824294,3.592424899420011,271.0,189.0,22.790623403818294,0.0,0,0.0,,,,,,
198.46599966824294,3.637311369297867,272.0,189.0,21.766233159915856,0.0,0,0.0,,,,,,
199.46599966824294,3.6843612521584213,273.0,189.0,20.741842916013418,0.0,0,0.0,,,,,,
200.46599966824294,3.733793650101282,274.0,189.0,19.71745267211098,0.0,0,0.0,,,,,,
201.46599966824294,3.7858627253213477,275.0,189.0,18.693062428208542,0.0,0,0.0,,,,,,
202.46599966824294,3.8408656018703575,276.0,189.0,17.668672184306104,0.0,0,0.0,,,,,,
203.46599966824294,3.899152626436387,277.0,189.0,16.644281940403665,0.0,0,0.0,,,,,,
204.46599966824294,3.961140886929516,278.0,189.0,15.619891696501227,0.0,0,0.0,,,,,,
205.46599966824294,4.027332314263619,279.0,189.0,14.59550145259879,0.0,0,0.0,,,,,,
206.46599966824294,4.098338367566872,280.0,189.0,13.571111208696351,0.0,0,0.0,,,,,,
