Distance (in),Time (s),X (in),Y (in),Velocity (in/s),Orientation (deg),Touch,Rotational Velocity (deg/s),Way X (in),Way Y (in),Way Velocity (in/s),Way Orientation (deg),Way Turn Radius (in),Touch this Point
0.0,0.0,74.0,175.00000000000003,12.0,0.0,0,0.0,74.0,175.00000000000003,12.0,0.0,3.0,0
0.9999999999999942,0.07754309863700566,74.98139265486002,175.19201160638568,13.792108326266115,0.0,0,0.0,120.0,184.00000000000003,96.0,0.0,20.0,0
1.9999999999999885,0.14562513413475564,75.96278530972003,175.38402321277133,15.58421665253223,0.0,0,0.0,200.0,186.00000000000003,96.0,0.0,3.0,0
2.9999999999999827,0.2063037486542116,76.94417796458005,175.57603481915697,17.376324978798348,0.0,0,0.0,282.0,186.00000000000003,12.0,0.0,3.0,0
3.999999999999977,0.26103115947643984,77.92557061944007,175.76804642554262,19.168433305064465,0.0,0,0.0,,,,,,
4.999999999999972,0.31087045896440374,78.90696327430008,175.96005803192827,20.96054163133058,0.0,0,0.0,,,,,,
5.999999999999966,0.3566232380981652,79.8883559291601,176.15206963831392,22.7526499575967,0.0,0,0.0,,,,,,
6.999999999999961,0.39890885319550257,80.86974858402012,176.34408124469957,24.544758283862816,0.0,0,0.0,,,,,,
7.999999999999956,0.4382157739977931,81.85114123888013,176.53609285108521,26.336866610128933,0.0,0,-0.0,,,,,,
8.99999999999995,0.4749360365185074,82.83253389374015,176.72810445747086,28.12897493639505,0.0,0,-0.0,,,,,,
9.999999999999945,0.50938905968589,83.81392654860016,176.9201160638565,29.921083262661167,0.0,0,-0.0,,,,,,
10.99999999999994,0.541838536942106,84.79531920346018,177.11212767024216,31.713191588927284,0.0,0,-0.0,,,,,,
11.999999999999934,0.5725046862791177,85.7767118583202,177.3041392766278,33.5052999151934,0.0,0,-0.0,,,,,,
12.999999999999929,0.6015733095002604,86.75810451318021,177.49615088301346,35.297408241459514,0.0,0,-0.0,,,,,,
13.999999999999924,0.6292026086488577,87.73949716804023,177.6881624893991,37.08951656772563,0.0,0,-0.0,,,,,,
14.999999999999918,0.6555283944869947,88.72088982290025,177.88017409578475,38.88162489399175,0.0,0,-0.0,,,,,,
15.999999999999913,0.6806681216833426,89.70228247776026,178.0721857021704,40.673733220257866,0.0,0,-0.0,,,,,,
16.999999999999908,0.7047240541993588,90.68367513262028,178.26419730855605,42.46584154652398,0.0,0,-0.0,,,,,,
17.9999999999999,0.7277857765626015,91.6650677874803,178.4562089149417,44.25794987279009,0.0,0,-0.0,,,,,,
18.999999999999893,0.7499322067928956,92.64646044234031,178.64822052132735,46.05005819905621,0.0,0,-0.0,,,,,,
19.999999999999886,0.7712332251239769,93.62785309720033,178.840232127713,47.84216652532233,0.0,0,0.0,,,,,,
20.99999999999988,0.7917510032840003,94.60924575206035,179.03224373409864,49.634274851588444,0.0,0,0.0,,,,,,
21.999999999999872,0.8115410980547795,95.59063840692036,179.2242553404843,51.42638317785456,0.0,0,0.0,,,,,,
22.999999999999865,0.8306533575522289,96.57203106178038,179.41626694686994,53.21849150412068,0.0,0,0.0,,,,,,
23.999999999999858,0.8491326774406175,97.5534237166404,179.6082785532556,55.010599830386795,0.0,0,0.0,,,,,,
24.99999999999985,0.867019635943194,98.53481637150041,179.80029015964124,56.80270815665291,0.0,0,0.0,,,,,,
25.999999999999844,0.8843510302365006,99.51620902636043,179.99230176602688,58.59481648291903,0.0,0,0.0,,,,,,
26.999999999999837,0.901160332052734,100.49760168122044,180.18431337241253,60.386924809185146,0.0,0,0.0,,,,,,
27.99999999999983,0.9174780766658296,101.47899433608046,180.37632497879818,62.17903313545126,0.0,0,0.0,,,,,,
28.999999999999822,0.9333321966175976,102.46038699094048,180.56833658518383,63.97114146171738,0.0,0,0.0,,,,,,
29.999999999999815,0.9487483093440262,103.4417796458005,180.76034819156948,65.7632497879835,0.0,0,0.0,,,,,,
30.999999999999808,0.9637499661380025,104.42317230066051,180.95235979795513,67.55535811424961,0.0,0,0.0,,,,,,
31.9999999999998,0.9783588685218968,105.40456495552053,181.14437140434077,69.34746644051573,0.0,0,0.0,,,,,,
32.999999999999794,0.9925950570188049,106.38595761038054,181.33638301072642,71.13957476678185,0.0,0,0.0,,,,,,
33.99999999999979,1.006477076442456,107.36735026524056,181.52839461711207,72.93168309304797,0.0,0,0.0,,,,,,
34.99999999999978,1.02002212112573,108.34874292010058,181.72040622349772,74.72379141931408,0.0,0,0.0,,,,,,
35.99999999999977,1.0332461629403846,109.3301355749606,181.91241782988337,76.5158997455802,0.0,0,0.0,,,,,,
36.999999999999766,1.0461640644983174,110.31152822982061,182.10442943626902,78.30800807184632,0.0,0,0.0,,,,,,
37.99999999999976,1.0587896795461067,111.29292088468063,182.29644104265466,80.10011639811243,0.0,0,0.0,,,,,,
38.99999999999975,1.0711359422529818,112.27431353954064,182.4884526490403,81.89222472437855,0.0,0,0.0,,,,,,
39.999999999999744,1.0832149468347625,113.25570619440066,182.68046425542596,83.68433305064467,0.0,0,0.0,,,,,,
40.99999999999974,1.095038018742349,114.23709884926068,182.8724758618116,85.47644137691078,0.0,0,0.0,,,,,,
41.99999999999973,1.1066157784649029,115.21849150412069,183.06448746819726,87.2685497031769,0.0,0,0.0,,,,,,
42.99999999999972,1.1179581988484433,116.19988415898071,183.2564990745829,89.06065802944302,0.0,0,0.0,,,,,,
43.999999999999716,1.1290746567049645,117.18127681384073,183.44851068096855,90.85276635570914,0.0,0,0.0,,,,,,
44.99999999999971,1.1399739793812123,118.16266946870074,183.6405222873542,92.64487468197525,0.0,0,0.0,,,,,,
45.9999999999997,1.1506644868665064,119.14406212356076,183.83253389373985,94.43698300824137,0.0,0,0.0,,,,,,
46.87216658103183,1.1598419616019249,120.0,184.00000000000003,95.62980686069423,0.0,0,0.0,,,,,,
47.87216658103183,1.1702787513308521,120.99968764640812,184.02499219116024,96.0,0.0,0,0.0,,,,,,
48.87216658103183,1.1806954179975189,121.99937529281624,184.04998438232045,96.0,0.0,0,0.0,,,,,,
49.87216658103183,1.1911120846641856,122.99906293922436,184.07497657348065,96.0,0.0,0,0.0,,,,,,
50.87216658103183,1.2015287513308524,123.99875058563248,184.09996876464086,96.0,0.0,0,0.0,,,,,,
51.87216658103183,1.211945417997519,124.9984382320406,184.12496095580107,96.0,0.0,0,0.0,,,,,,
52.87216658103183,1.2223620846641858,125.99812587844872,184.14995314696128,96.0,0.0,0,0.0,,,,,,
53.87216658103183,1.2327787513308526,126.99781352485684,184.1749453381215,96.0,0.0,0,0.0,,,,,,
54.87216658103183,1.2431954179975193,127.99750117126496,184.1999375292817,96.0,0.0,0,0.0,,,,,,
55.87216658103183,1.253612084664186,128.99718881767308,184.2249297204419,96.0,0.0,0,0.0,,,,,,
56.87216658103183,1.2640287513308528,129.9968764640812,184.24992191160212,96.0,0.0,0,0.0,,,,,,
57.87216658103183,1.2744454179975195,130.99656411048932,184.27491410276232,96.0,0.0,0,0.0,,,,,,
58.87216658103183,1.2848620846641863,131.99625175689744,184.29990629392253,96.0,0.0,0,0.0,,,,,,
59.87216658103183,1.295278751330853,132.99593940330556,184.32489848508274,96.0,0.0,0,0.0,,,,,,
60.87216658103183,1.3056954179975198,133.99562704971368,184.34989067624295,96.0,0.0,0,0.0,,,,,,
61.87216658103183,1.3161120846641865,134.9953146961218,184.37488286740316,96.0,0.0,0,0.0,,,,,,
62.87216658103183,1.3265287513308532,135.99500234252992,184.39987505856337,96.0,0.0,0,0.0,,,,,,
63.87216658103183,1.33694541799752,136.99468998893803,184.42486724972358,96.0,0.0,0,0.0,,,,,,
64.87216658103182,1.3473620846641865,137.99437763534615,184.44985944088378,96.0,0.0,0,0.0,,,,,,
65.87216658103182,1.3577787513308532,138.99406528175427,184.474851632044,96.0,0.0,0,0.0,,,,,,
66.87216658103182,1.36819541799752,139.9937529281624,184.4998438232042,96.0,0.0,0,0.0,,,,,,
67.87216658103182,1.3786120846641867,140.9934405745705,184.5248360143644,96.0,0.0,0,0.0,,,,,,
68.87216658103182,1.3890287513308535,141.99312822097863,184.54982820552462,96.0,0.0,0,0.0,,,,,,
69.87216658103182,1.3994454179975202,142.99281586738675,184.57482039668483,96.0,0.0,0,0.0,,,,,,
70.87216658103182,1.409862084664187,143.99250351379487,184.59981258784504,96.0,0.0,0,0.0,,,,,,
71.87216658103182,1.4202787513308537,144.992191160203,184.62480477900525,96.0,0.0,0,0.0,,,,,,
72.87216658103182,1.4306954179975204,145.9918788066111,184.64979697016545,96.0,0.0,0,0.0,,,,,,
73.87216658103182,1.4411120846641872,146.99156645301923,184.67478916132566,96.0,0.0,0,0.0,,,,,,
74.87216658103182,1.451528751330854,147.99125409942735,184.69978135248587,96.0,0.0,0,-0.0,,,,,,
75.87216658103182,1.4619454179975206,148.99094174583547,184.72477354364608,96.0,0.0,0,-0.0,,,,,,
76.87216658103182,1.4723620846641874,149.9906293922436,184.7497657348063,96.0,0.0,0,-0.0,,,,,,
77.87216658103182,1.4827787513308541,150.9903170386517,184.7747579259665,96.0,0.0,0,-0.0,,,,,,
78.87216658103182,1.4931954179975209,151.99000468505983,184.7997501171267,96.0,0.0,0,-0.0,,,,,,
79.87216658103182,1.5036120846641876,152.98969233146795,184.82474230828691,96.0,0.0,0,-0.0,,,,,,
80.87216658103182,1.5140287513308543,153.98937997787607,184.84973449944712,96.0,0.0,0,-0.0,,,,,,
81.87216658103182,1.524445417997521,154.9890676242842,184.87472669060733,96.0,0.0,0,-0.0,,,,,,
82.87216658103182,1.5348620846641878,155.9887552706923,184.89971888176754,96.0,0.0,0,-0.0,,,,,,
83.87216658103182,1.5452787513308546,156.98844291710043,184.92471107292775,96.0,0.0,0,-0.0,,,,,,
84.87216658103182,1.5556954179975213,157.98813056350855,184.94970326408796,96.0,0.0,0,-0.0,,,,,,
85.87216658103182,1.566112084664188,158.98781820991667,184.97469545524817,96.0,0.0,0,-0.0,,,,,,
86.87216658103182,1.5765287513308548,159.9875058563248,184.99968764640838,96.0,0.0,0,-0.0,,,,,,
87.87216658103182,1.5869454179975215,160.9871935027329,185.02467983756858,96.0,0.0,0,-0.0,,,,,,
88.87216658103182,1.5973620846641883,161.98688114914103,185.0496720287288,96.0,0.0,0,-0.0,,,,,,
89.87216658103182,1.607778751330855,162.98656879554915,185.074664219889,96.0,0.0,0,-0.0,,,,,,
90.87216658103182,1.6181954179975218,163.98625644195727,185.0996564110492,96.0,0.0,0,-0.0,,,,,,
91.87216658103182,1.6286120846641885,164.9859440883654,185.12464860220942,96.0,0.0,0,-0.0,,,,,,
92.87216658103182,1.6390287513308552,165.9856317347735,185.14964079336963,96.0,0.0,0,-0.0,,,,,,
93.87216658103182,1.649445417997522,166.98531938118163,185.17463298452984,96.0,0.0,0,-0.0,,,,,,
94.87216658103182,1.6598620846641887,167.98500702758975,185.19962517569004,96.0,0.0,0,-0.0,,,,,,
95.87216658103182,1.6702787513308555,168.98469467399786,185.22461736685025,96.0,0.0,0,-0.0,,,,,,
96.87216658103182,1.6806954179975222,169.98438232040598,185.24960955801046,96.0,0.0,0,-0.0,,,,,,
97.87216658103182,1.691112084664189,170.9840699668141,185.27460174917067,96.0,0.0,0,-0.0,,,,,,
98.87216658103182,1.7015287513308557,171.98375761322222,185.29959394033088,96.0,0.0,0,0.0,,,,,,
99.87216658103182,1.7119454179975224,172.98344525963034,185.3245861314911,96.0,0.0,0,0.0,,,,,,
100.87216658103182,1.7223620846641892,173.98313290603846,185.3495783226513,96.0,0.0,0,0.0,,,,,,
101.87216658103182,1.732778751330856,174.98282055244658,185.3745705138115,96.0,0.0,0,0.0,,,,,,
102.87216658103182,1.7431954179975226,175.9825081988547,185.39956270497171,96.0,0.0,0,0.0,,,,,,
103.87216658103182,1.7536120846641894,176.98219584526282,185.42455489613192,96.0,0.0,0,0.0,,,,,,
104.87216658103182,1.7640287513308561,177.98188349167094,185.44954708729213,96.0,0.0,0,0.0,,,,,,
105.87216658103182,1.7744454179975229,178.98157113807906,185.47453927845234,96.0,0.0,0,0.0,,,,,,
106.87216658103182,1.7848620846641896,179.98125878448718,185.49953146961255,96.0,0.0,0,0.0,,,,,,
107.87216658103182,1.7952787513308563,180.9809464308953,185.52452366077276,96.0,0.0,0,0.0,,,,,,
108.87216658103182,1.805695417997523,181.98063407730342,185.54951585193297,96.0,0.0,0,0.0,,,,,,
109.87216658103182,1.8161120846641898,182.98032172371154,185.57450804309318,96.0,0.0,0,0.0,,,,,,
110.87216658103182,1.8265287513308566,183.98000937011966,185.59950023425338,96.0,0.0,0,0.0,,,,,,
111.87216658103182,1.8369454179975233,184.97969701652778,185.6244924254136,96.0,0.0,0,0.0,,,,,,
112.87216658103182,1.84736208466419,185.9793846629359,185.6494846165738,96.0,0.0,0,0.0,,,,,,
113.87216658103182,1.8577787513308568,186.97907230934402,185.674476807734,96.0,0.0,0,0.0,,,,,,
114.87216658103182,1.8681954179975235,187.97875995575214,185.69946899889422,96.0,0.0,0,0.0,,,,,,
115.87216658103182,1.8786120846641903,188.97844760216026,185.72446119005443,96.0,0.0,0,0.0,,,,,,
116.87216658103182,1.889028751330857,189.97813524856838,185.74945338121464,96.0,0.0,0,0.0,,,,,,
117.87216658103182,1.8994454179975238,190.9778228949765,185.77444557237484,96.0,0.0,0,0.0,,,,,,
118.87216658103182,1.9098620846641905,191.97751054138462,185.79943776353505,96.0,0.0,0,0.0,,,,,,
119.87216658103182,1.9202787513308572,192.97719818779274,185.82442995469526,96.0,0.0,0,0.0,,,,,,
120.87216658103182,1.930695417997524,193.97688583420086,185.84942214585547,96.0,0.0,0,0.0,,,,,,
121.87216658103182,1.9411120846641907,194.97657348060898,185.87441433701568,96.0,0.0,0,0.0,,,,,,
122.87216658103182,1.9515287513308575,195.9762611270171,185.8994065281759,96.0,0.0,0,0.0,,,,,,
123.87216658103182,1.9619454179975242,196.97594877342522,185.9243987193361,96.0,0.0,0,0.0,,,,,,
124.87216658103182,1.972362084664191,197.97563641983334,185.9493909104963,96.0,0.0,0,0.0,,,,,,
125.87216658103182,1.9827787513308577,198.97532406624146,185.9743831016565,96.0,0.0,0,0.0,,,,,,
126.87216658103182,1.9931954179975244,199.97501171264958,185.99937529281672,96.0,0.0,0,0.0,,,,,,
126.89716267600228,1.9934558287160358,200.0,186.00000000000003,95.9743942441766,0.0,0,0.0,,,,,,
127.89716267600228,2.003931179265206,201.0,186.00000000000003,94.95000400027415,0.0,0,0.0,,,,,,
128.89716267600227,2.0145201585297334,202.0,186.00000000000003,93.92561375637172,0.0,0,0.0,,,,,,
129.89716267600227,2.025225258660086,203.0,186.00000000000003,92.90122351246927,0.0,0,0.0,,,,,,
130.89716267600227,2.036049054704061,204.0,186.00000000000003,91.87683326856683,0.0,0,0.0,,,,,,
131.89716267600227,2.0469942083246035,205.0,186.00000000000003,90.85244302466438,0.0,0,0.0,,,,,,
132.89716267600227,2.0580634717284068,206.0,186.00000000000003,89.82805278076194,0.0,0,0.0,,,,,,
133.89716267600227,2.0692596918198047,207.0,186.00000000000003,88.80366253685949,0.0,0,0.0,,,,,,
134.89716267600227,2.080585814595641,208.0,186.00000000000003,87.77927229295705,0.0,0,0.0,,,,,,
135.89716267600227,2.0920448897980846,209.0,186.00000000000003,86.7548820490546,0.0,0,0.0,,,,,,
136.89716267600227,2.103640075843775,210.0,186.00000000000003,85.73049180515216,0.0,0,0.0,,,,,,
137.89716267600227,2.11537464504923,211.0,186.00000000000003,84.70610156124971,0.0,0,0.0,,,,,,
138.89716267600227,2.1272519891741397,212.0,186.00000000000003,83.68171131734726,0.0,0,0.0,,,,,,
139.89716267600227,2.1392756253060443,213.0,186.00000000000003,82.65732107344482,0.0,0,0.0,,,,,,
140.89716267600227,2.1514492021119342,214.0,186.00000000000003,81.63293082954237,0.0,0,0.0,,,,,,
141.89716267600227,2.1637765064845746,215.0,186.00000000000003,80.60854058563993,0.0,0,0.0,,,,,,
142.89716267600227,2.1762614706138477,216.0,186.00000000000003,79.58415034173748,0.0,0,0.0,,,,,,
143.89716267600227,2.1889081795161434,217.0,186.00000000000003,78.55976009783504,0.0,0,0.0,,,,,,
144.89716267600227,2.201720879057878,218.0,186.00000000000003,77.5353698539326,0.0,0,0.0,,,,,,
145.89716267600227,2.2147039845125636,219.0,186.00000000000003,76.51097961003015,0.0,0,0.0,,,,,,
146.89716267600227,2.227862089694586,220.0,186.00000000000003,75.4865893661277,0.0,0,0.0,,,,,,
147.89716267600227,2.2411999767169632,221.0,186.00000000000003,74.46219912222526,0.0,0,0.0,,,,,,
148.89716267600227,2.254722626424951,222.0,186.00000000000003,73.43780887832281,0.0,0,0.0,,,,,,
149.89716267600227,2.2684352295624546,223.0,186.00000000000003,72.41341863442037,0.0,0,0.0,,,,,,
150.89716267600227,2.282343198733891,224.0,186.00000000000003,71.38902839051792,0.0,0,0.0,,,,,,
151.89716267600227,2.296452181230482,225.0,186.00000000000003,70.36463814661548,0.0,0,0.0,,,,,,
152.89716267600227,2.3107680727970363,226.0,186.00000000000003,69.34024790271303,0.0,0,0.0,,,,,,
153.89716267600227,2.3252970324232125,227.0,186.00000000000003,68.31585765881059,0.0,0,0.0,,,,,,
154.89716267600227,2.3400454982521253,228.0,186.00000000000003,67.29146741490814,0.0,0,0.0,,,,,,
155.89716267600227,2.3550202047091386,229.0,186.00000000000003,66.2670771710057,0.0,0,0.0,,,,,,
156.89716267600227,2.3702282009648994,230.0,186.00000000000003,65.24268692710325,0.0,0,0.0,,,,,,
157.89716267600227,2.3856768708593,231.0,186.00000000000003,64.2182966832008,0.0,0,0.0,,,,,,
158.89716267600227,2.4013739544273247,232.0,186.00000000000003,63.19390643929837,0.0,0,0.0,,,,,,
159.89716267600227,2.4173275711838484,233.0,186.00000000000003,62.16951619539593,0.0,0,0.0,,,,,,
160.89716267600227,2.4335462453427343,234.0,186.00000000000003,61.14512595149349,0.0,0,0.0,,,,,,
161.89716267600227,2.4500389331663084,235.0,186.00000000000003,60.12073570759105,0.0,0,0.0,,,,,,
162.89716267600227,2.4668150526648773,236.0,186.00000000000003,59.096345463688614,0.0,0,0.0,,,,,,
163.89716267600227,2.4838845158928446,237.0,186.00000000000003,58.071955219786176,0.0,0,0.0,,,,,,
164.89716267600227,2.5012577641186935,238.0,186.00000000000003,57.04756497588374,0.0,0,0.0,,,,,,
165.89716267600227,2.5189458061812755,239.0,186.00000000000003,56.0231747319813,0.0,0,0.0,,,,,,
166.89716267600227,2.5369602603852024,240.0,186.00000000000003,54.99878448807886,0.0,0,0.0,,,,,,
167.89716267600227,2.555313400334565,241.0,186.00000000000003,53.97439424417642,0.0,0,0.0,,,,,,
168.89716267600227,2.57401820515776,242.0,186.00000000000003,52.950004000273985,0.0,0,0.0,,,,,,
169.89716267600227,2.5930884146381064,243.0,186.00000000000003,51.92561375637155,0.0,0,0.0,,,,,,
170.89716267600227,2.6125385898367366,244.0,186.00000000000003,50.90122351246911,0.0,0,0.0,,,,,,
171.89716267600227,2.6323841798776866,245.0,186.00000000000003,49.87683326856667,0.0,0,0.0,,,,,,
172.89716267600227,2.652641595662442,246.0,186.00000000000003,48.85244302466423,0.0,0,0.0,,,,,,
173.89716267600227,2.6733282913950034,247.0,186.00000000000003,47.828052780761794,0.0,0,0.0,,,,,,
174.89716267600227,2.69446285493205,248.0,186.00000000000003,46.803662536859356,0.0,0,-0.0,,,,,,
175.89716267600227,2.716065108129968,249.0,186.00000000000003,45.77927229295692,0.0,0,-0.0,,,,,,
176.89716267600227,2.7381562185460946,250.0,186.00000000000003,44.75488204905448,0.0,0,-0.0,,,,,,
177.89716267600227,2.7607588240715604,251.0,186.00000000000003,43.73049180515204,0.0,0,-0.0,,,,,,
178.89716267600227,2.783897172334802,252.0,186.00000000000003,42.7061015612496,0.0,0,-0.0,,,,,,
179.89716267600227,2.807597277027375,253.0,186.00000000000003,41.681711317347165,0.0,0,-0.0,,,,,,
180.89716267600227,2.8318870936784593,254.0,186.00000000000003,40.65732107344473,0.0,0,-0.0,,,,,,
181.89716267600227,2.8567967178557074,255.0,186.00000000000003,39.63293082954229,0.0,0,-0.0,,,,,,
182.89716267600227,2.882358609315892,256.0,186.00000000000003,38.60854058563985,0.0,0,-0.0,,,,,,
183.89716267600227,2.908607846291999,257.0,186.00000000000003,37.58415034173741,0.0,0,-0.0,,,,,,
184.89716267600227,2.9355824149132483,258.0,186.00000000000003,36.559760097834975,0.0,0,-0.0,,,,,,
185.89716267600227,2.9633235397484214,259.0,186.00000000000003,35.535369853932536,0.0,0,-0.0,,,,,,
186.89716267600227,2.9918760626893772,260.0,186.00000000000003,34.5109796100301,0.0,0,-0.0,,,,,,
187.89716267600227,3.021288878913752,261.0,186.00000000000003,33.48658936612766,0.0,0,-0.0,,,,,,
188.89716267600227,3.0516154405662563,262.0,186.00000000000003,32.46219912222522,0.0,0,-0.0,,,,,,
189.89716267600227,3.0829143411858437,263.0,186.00000000000003,31.437808878322784,0.0,0,-0.0,,,,,,
190.89716267600227,3.1152499969266767,264.0,186.00000000000003,30.413418634420346,0.0,0,-0.0,,,,,,
191.89716267600227,3.148693444469316,265.0,186.00000000000003,29.389028390517907,0.0,0,-0.0,,,,,,
192.89716267600227,3.1833232804592804,266.0,186.00000000000003,28.36463814661547,0.0,0,-0.0,,,,,,
193.89716267600227,3.2192267737045395,267.0,186.00000000000003,27.34024790271303,0.0,0,-0.0,,,,,,
194.89716267600227,3.2565011897112464,268.0,186.00000000000003,26.315857658810593,0.0,0,-0.0,,,,,,
195.89716267600227,3.2952553781359146,269.0,186.00000000000003,25.291467414908155,0.0,0,0.0,,,,,,
