Distance (in),Time (s),X (in),Y (in),Velocity (in/s),Orientation (deg),Touch,Rotational Velocity (deg/s),Way X (in),Way Y (in),Way Velocity (in/s),Way Orientation (deg),Way Turn Radius (in),Touch this Point
0.0,0.0,74.0,18.0,12.0,0.0,0,0.0,74.0,18.0,12.0,0.0,3.0,0
0.9999999999999934,0.07620111680643352,74.97618706018395,18.216930457818655,14.246334487201775,0.0,0,0.0,110.0,26.0,192.0,0.0,3.0,0
1.999999999999987,0.14126503478601588,75.95237412036789,18.43386091563731,16.49266897440355,0.0,0,0.0,170.0,26.0,192.0,0.0,3.0,0
2.9999999999999805,0.19803213840939843,76.92856118055184,18.650791373455966,18.739003461605325,0.0,0,0.0,230.0,26.0,0.0,0.0,3.0,0
3.999999999999974,0.24837910273882474,77.90474824073578,18.867721831274622,20.9853379488071,0.0,0,0.0,,,,,,
4.999999999999967,0.29361056417400994,78.88093530091973,19.084652289093277,23.231672436008875,0.0,0,0.0,,,,,,
5.999999999999961,0.33467016518781617,79.85712236110368,19.301582746911933,25.47800692321065,0.0,0,-0.0,,,,,,
6.999999999999955,0.37226249076446777,80.83330942128762,19.51851320473059,27.724341410412425,0.0,0,-0.0,,,,,,
7.9999999999999485,0.40692752932962206,81.80949648147157,19.735443662549244,29.9706758976142,0.0,0,-0.0,,,,,,
8.999999999999941,0.4390882370124394,82.78568354165552,19.9523741203679,32.21701038481597,0.0,0,-0.0,,,,,,
9.999999999999934,0.4690820784114025,83.76187060183946,20.169304578186555,34.46334487201774,0.0,0,-0.0,,,,,,
10.999999999999927,0.4971826125899432,84.73805766202341,20.38623503600521,36.709679359219514,0.0,0,-0.0,,,,,,
11.99999999999992,0.523614670703314,85.71424472220735,20.603165493823866,38.956013846421286,0.0,0,-0.0,,,,,,
12.999999999999913,0.5485652802917157,86.6904317823913,20.82009595164252,41.20234833362306,0.0,0,-0.0,,,,,,
13.999999999999906,0.5721916906581876,87.66661884257525,21.037026409461177,43.44868282082483,0.0,0,-0.0,,,,,,
14.999999999999899,0.5946273759293746,88.64280590275919,21.253956867279832,45.6950173080266,0.0,0,-0.0,,,,,,
15.999999999999892,0.6159865979833027,89.61899296294314,21.470887325098488,47.94135179522837,0.0,0,0.0,,,,,,
16.999999999999886,0.636367924848213,90.59518002312709,21.687817782917143,50.18768628243015,0.0,0,0.0,,,,,,
17.99999999999988,0.6558569789426392,91.57136708331103,21.9047482407358,52.43402076963192,0.0,0,0.0,,,,,,
18.999999999999872,0.6745286089720746,92.54755414349498,22.121678698554454,54.68035525683369,0.0,0,0.0,,,,,,
19.999999999999865,0.6924486246842046,93.52374120367892,22.33860915637311,56.926689744035464,0.0,0,0.0,,,,,,
20.999999999999858,0.7096751959781352,94.49992826386287,22.555539614191765,59.173024231237235,0.0,0,0.0,,,,,,
21.99999999999985,0.7262599913945638,95.47611532404682,22.77247007201042,61.41935871843901,0.0,0,0.0,,,,,,
22.999999999999844,0.7422491121506865,96.45230238423076,22.989400529829076,63.66569320564078,0.0,0,0.0,,,,,,
23.999999999999837,0.7576838642526074,97.42848944441471,23.206330987647732,65.91202769284256,0.0,0,0.0,,,,,,
24.99999999999983,0.7726014012411714,98.40467650459865,23.423261445466387,68.15836218004434,0.0,0,0.0,,,,,,
25.999999999999822,0.7870352627381536,99.3808635647826,23.640191903285043,70.40469666724611,0.0,0,0.0,,,,,,
26.999999999999815,0.8010158284271612,100.35705062496655,23.8571223611037,72.65103115444789,0.0,0,0.0,,,,,,
27.999999999999808,0.8145707029187076,101.3332376851505,24.074052818922354,74.89736564164967,0.0,0,0.0,,,,,,
28.9999999999998,0.8277250437533009,102.30942474533444,24.29098327674101,77.14370012885145,0.0,0,0.0,,,,,,
29.999999999999794,0.8405018423345095,103.28561180551839,24.507913734559665,79.39003461605323,0.0,0,0.0,,,,,,
30.999999999999787,0.8529221656715833,104.26179886570233,24.72484419237832,81.636369103255,0.0,0,0.0,,,,,,
31.99999999999978,0.8650053653140857,105.23798592588628,24.941774650196976,83.88270359045679,0.0,0,0.0,,,,,,
32.99999999999977,0.87676925868037,106.21417298607022,25.15870510801563,86.12903807765856,0.0,0,0.0,,,,,,
33.999999999999766,0.8882302870442724,107.19036004625417,25.375635565834287,88.37537256486034,0.0,0,0.0,,,,,,
34.99999999999976,0.8994036536951712,108.16654710643812,25.592566023652942,90.62170705206212,0.0,0,0.0,,,,,,
35.99999999999975,0.9103034451840921,109.14273416662206,25.809496481471598,92.8680415392639,0.0,0,0.0,,,,,,
36.878177829171534,0.9197159697445636,110.0,26.0,93.72968227646007,0.0,0,0.0,,,,,,
37.878177829171534,0.930329397566091,111.0,26.0,94.71085113380732,0.0,0,0.0,,,,,,
38.878177829171534,0.9408334408516956,112.0,26.0,95.69201999115458,0.0,0,0.0,,,,,,
39.878177829171534,0.951230331287674,113.0,26.0,96.67318884850184,0.0,0,0.0,,,,,,
40.878177829171534,0.9615222329529926,114.0,26.0,97.6543577058491,0.0,0,0.0,,,,,,
41.878177829171534,0.9717112450228081,115.0,26.0,98.63552656319635,0.0,0,0.0,,,,,,
42.878177829171534,0.9817994043381879,116.0,26.0,99.6166954205436,0.0,0,0.0,,,,,,
43.878177829171534,0.9917886878498987,117.0,26.0,100.59786427789086,0.0,0,0.0,,,,,,
44.878177829171534,1.0016810149435982,118.0,26.0,101.57903313523812,0.0,0,0.0,,,,,,
45.878177829171534,1.0114782496532693,119.0,26.0,102.56020199258538,0.0,0,0.0,,,,,,
46.878177829171534,1.0211822027692807,120.0,26.0,103.54137084993263,0.0,0,0.0,,,,,,
47.878177829171534,1.0307946338470386,121.0,26.0,104.52253970727989,0.0,0,0.0,,,,,,
48.878177829171534,1.0403172531218006,122.0,26.0,105.50370856462715,0.0,0,0.0,,,,,,
49.878177829171534,1.0497517233348639,123.0,26.0,106.4848774219744,0.0,0,0.0,,,,,,
50.878177829171534,1.0590996614760064,124.0,26.0,107.46604627932166,0.0,0,0.0,,,,,,
51.878177829171534,1.0683626404467454,125.0,26.0,108.44721513666892,0.0,0,0.0,,,,,,
52.878177829171534,1.0775421906486953,126.0,26.0,109.42838399401617,0.0,0,0.0,,,,,,
53.878177829171534,1.0866398015010328,127.0,26.0,110.40955285136343,0.0,0,-0.0,,,,,,
54.878177829171534,1.0956569228908366,128.0,26.0,111.39072170871069,0.0,0,-0.0,,,,,,
55.878177829171534,1.1045949665598302,129.0,26.0,112.37189056605794,0.0,0,-0.0,,,,,,
56.878177829171534,1.1134553074308478,130.0,26.0,113.3530594234052,0.0,0,-0.0,,,,,,
57.878177829171534,1.1222392848771365,131.0,26.0,114.33422828075246,0.0,0,-0.0,,,,,,
58.878177829171534,1.1309482039374321,132.0,26.0,115.31539713809971,0.0,0,-0.0,,,,,,
59.878177829171534,1.1395833364795573,133.0,26.0,116.29656599544697,0.0,0,-0.0,,,,,,
60.878177829171534,1.1481459223151431,134.0,26.0,117.27773485279423,0.0,0,-0.0,,,,,,
61.878177829171534,1.1566371702679137,135.0,26.0,118.25890371014148,0.0,0,-0.0,,,,,,
62.878177829171534,1.1650582591978385,136.0,26.0,119.24007256748874,0.0,0,-0.0,,,,,,
63.878177829171534,1.1734103389833195,137.0,26.0,120.221241424836,0.0,0,-0.0,,,,,,
64.87817782917153,1.1816945314634626,138.0,26.0,121.20241028218325,0.0,0,-0.0,,,,,,
65.87817782917153,1.1899119313423627,139.0,26.0,122.18357913953051,0.0,0,-0.0,,,,,,
66.87817782917153,1.1980636070572253,140.0,26.0,123.16474799687776,0.0,0,-0.0,,,,,,
67.87817782917153,1.2061506016120462,141.0,26.0,124.14591685422502,0.0,0,-0.0,,,,,,
68.87817782917153,1.214173933378478,142.0,26.0,125.12708571157228,0.0,0,-0.0,,,,,,
69.87817782917153,1.2221345968654185,143.0,26.0,126.10825456891953,0.0,0,-0.0,,,,,,
70.87817782917153,1.2300335634587773,144.0,26.0,127.08942342626679,0.0,0,-0.0,,,,,,
71.87817782917153,1.2378717821327956,145.0,26.0,128.07059228361405,0.0,0,0.0,,,,,,
72.87817782917153,1.2456501801342228,146.0,26.0,129.0517611409613,0.0,0,0.0,,,,,,
73.87817782917153,1.2533696636405829,147.0,26.0,130.03292999830856,0.0,0,0.0,,,,,,
74.87817782917153,1.2610311183936989,148.0,26.0,131.01409885565582,0.0,0,0.0,,,,,,
75.87817782917153,1.2686354103095836,149.0,26.0,131.99526771300307,0.0,0,0.0,,,,,,
76.87817782917153,1.2761833860657468,150.0,26.0,132.97643657035033,0.0,0,0.0,,,,,,
77.87817782917153,1.2836758736669147,151.0,26.0,133.9576054276976,0.0,0,0.0,,,,,,
78.87817782917153,1.2911136829901066,152.0,26.0,134.93877428504484,0.0,0,0.0,,,,,,
79.87817782917153,1.2984976063099674,153.0,26.0,135.9199431423921,0.0,0,0.0,,,,,,
80.87817782917153,1.3058284188052056,154.0,26.0,136.90111199973936,0.0,0,0.0,,,,,,
81.87817782917153,1.3131068790469498,155.0,26.0,137.8822808570866,0.0,0,0.0,,,,,,
82.87817782917153,1.3203337294697899,156.0,26.0,138.86344971443387,0.0,0,0.0,,,,,,
83.87817782917153,1.3275096968262359,157.0,26.0,139.84461857178113,0.0,0,0.0,,,,,,
84.87817782917153,1.3346354926252897,158.0,26.0,140.82578742912838,0.0,0,0.0,,,,,,
85.87817782917153,1.341711813555792,159.0,26.0,141.80695628647564,0.0,0,0.0,,,,,,
86.87817782917153,1.3487393418951734,160.0,26.0,142.7881251438229,0.0,0,0.0,,,,,,
87.87817782917153,1.3557187459042108,161.0,26.0,143.76929400117015,0.0,0,0.0,,,,,,
88.87817782917153,1.3626506802083584,162.0,26.0,144.7504628585174,0.0,0,0.0,,,,,,
89.87817782917153,1.3695357861661988,163.0,26.0,145.73163171586467,0.0,0,0.0,,,,,,
90.87817782917153,1.3763746922255318,164.0,26.0,146.71280057321192,0.0,0,0.0,,,,,,
91.87817782917153,1.3831680142675975,165.0,26.0,147.69396943055918,0.0,0,0.0,,,,,,
92.87817782917153,1.3899163559399013,166.0,26.0,148.67513828790644,0.0,0,0.0,,,,,,
93.87817782917153,1.3966203089780937,167.0,26.0,149.6563071452537,0.0,0,0.0,,,,,,
94.87817782917153,1.403280453517334,168.0,26.0,150.63747600260095,0.0,0,0.0,,,,,,
95.87817782917153,1.409897358393545,169.0,26.0,151.6186448599482,0.0,0,0.0,,,,,,
96.87817782917153,1.4165482776276275,170.0,26.0,149.09166744561574,0.0,0,0.0,,,,,,
97.87817782917153,1.4233128877887882,171.0,26.0,146.56469003128328,0.0,0,0.0,,,,,,
98.87817782917153,1.430195143344056,172.0,26.0,144.0377126169508,0.0,0,0.0,,,,,,
99.87817782917153,1.4371992087321606,173.0,26.0,141.51073520261835,0.0,0,0.0,,,,,,
100.87817782917153,1.4443294734966272,174.0,26.0,138.98375778828589,0.0,0,0.0,,,,,,
101.87817782917153,1.451590568807231,175.0,26.0,136.45678037395342,0.0,0,0.0,,,,,,
102.87817782917153,1.4589873855255096,176.0,26.0,133.92980295962096,0.0,0,0.0,,,,,,
103.87817782917153,1.466525093990803,177.0,26.0,131.4028255452885,0.0,0,0.0,,,,,,
104.87817782917153,1.4742091657272671,178.0,26.0,128.87584813095603,0.0,0,0.0,,,,,,
105.87817782917153,1.4820453973000969,179.0,26.0,126.34887071662357,0.0,0,0.0,,,,,,
106.87817782917153,1.4900399365814687,180.0,26.0,123.8218933022911,0.0,0,0.0,,,,,,
107.87817782917153,1.498199311724312,181.0,26.0,121.29491588795864,0.0,0,0.0,,,,,,
108.87817782917153,1.506530463185952,182.0,26.0,118.76793847362617,0.0,0,0.0,,,,,,
109.87817782917153,1.5150407791951541,183.0,26.0,116.24096105929371,0.0,0,0.0,,,,,,
110.87817782917153,1.5237381351166466,184.0,26.0,113.71398364496125,0.0,0,0.0,,,,,,
111.87817782917153,1.532630937238622,185.0,26.0,111.18700623062878,0.0,0,0.0,,,,,,
112.87817782917153,1.5417281715932865,186.0,26.0,108.66002881629632,0.0,0,0.0,,,,,,
113.87817782917153,1.551039458521002,187.0,26.0,106.13305140196385,0.0,0,0.0,,,,,,
114.87817782917153,1.5605751138084212,188.0,26.0,103.60607398763139,0.0,0,0.0,,,,,,
115.87817782917153,1.5703462173745422,189.0,26.0,101.07909657329893,0.0,0,0.0,,,,,,
116.87817782917153,1.580364690651198,190.0,26.0,98.55211915896646,0.0,0,0.0,,,,,,
117.87817782917153,1.5906433840129617,191.0,26.0,96.025141744634,0.0,0,0.0,,,,,,
118.87817782917153,1.6011961758643725,192.0,26.0,93.49816433030153,0.0,0,0.0,,,,,,
119.87817782917153,1.6120380853007534,193.0,26.0,90.97118691596907,0.0,0,0.0,,,,,,
120.87817782917153,1.6231854006367508,194.0,26.0,88.4442095016366,0.0,0,0.0,,,,,,
121.87817782917153,1.634655826562197,195.0,26.0,85.91723208730414,0.0,0,0.0,,,,,,
122.87817782917153,1.6464686532615374,196.0,26.0,83.39025467297168,0.0,0,0.0,,,,,,
123.87817782917153,1.6586449515516266,197.0,26.0,80.86327725863922,0.0,0,0.0,,,,,,
124.87817782917153,1.6712077989937821,198.0,26.0,78.33629984430675,0.0,0,0.0,,,,,,
125.87817782917153,1.6841825430733854,199.0,26.0,75.80932242997429,0.0,0,0.0,,,,,,
126.87817782917153,1.6975971089861956,200.0,26.0,73.28234501564182,0.0,0,0.0,,,,,,
127.87817782917153,1.7114823614222623,201.0,26.0,70.75536760130936,0.0,0,0.0,,,,,,
128.87817782917153,1.7258725321287314,202.0,26.0,68.2283901869769,0.0,0,0.0,,,,,,
129.87817782917153,1.7408057281448786,203.0,26.0,65.70141277264443,0.0,0,0.0,,,,,,
130.87817782917153,1.7563245396910707,204.0,26.0,63.17443535831196,0.0,0,0.0,,,,,,
131.87817782917153,1.7724767721166994,205.0,26.0,60.64745794397949,0.0,0,0.0,,,,,,
132.87817782917153,1.7893163335817164,206.0,26.0,58.12048052964702,0.0,0,0.0,,,,,,
133.87817782917153,1.8069043200007342,207.0,26.0,55.59350311531455,0.0,0,0.0,,,,,,
134.87817782917153,1.8253103522997063,208.0,26.0,53.066525700982076,0.0,0,0.0,,,,,,
135.87817782917153,1.8446142398327747,209.0,26.0,50.539548286649605,0.0,0,0.0,,,,,,
136.87817782917153,1.8649080703162568,210.0,26.0,48.012570872317134,0.0,0,0.0,,,,,,
137.87817782917153,1.8862988646096568,211.0,26.0,45.48559345798466,0.0,0,0.0,,,,,,
138.87817782917153,1.908911990005537,212.0,26.0,42.95861604365219,0.0,0,0.0,,,,,,
139.87817782917153,1.9328956078496522,213.0,26.0,40.43163862931972,0.0,0,0.0,,,,,,
140.87817782917153,1.9584265558772587,214.0,26.0,37.90466121498725,0.0,0,-0.0,,,,,,
141.87817782917153,1.9857182589412519,215.0,26.0,35.37768380065478,0.0,0,-0.0,,,,,,
142.87817782917153,2.015031569639615,216.0,26.0,32.85070638632231,0.0,0,-0.0,,,,,,
143.87817782917153,2.046689945193847,217.0,26.0,30.323728971989837,0.0,0,-0.0,,,,,,
144.87817782917153,2.081101222970186,218.0,26.0,27.796751557657366,0.0,0,-0.0,,,,,,
145.87817782917153,2.1187897652966527,219.0,26.0,25.269774143324895,0.0,0,-0.0,,,,,,
146.87817782917153,2.160445522604853,220.0,26.0,22.742796728992424,0.0,0,-0.0,,,,,,
147.87817782917153,2.2070019572434294,221.0,26.0,20.215819314659953,0.0,0,-0.0,,,,,,
148.87817782917153,2.2597659165004824,222.0,26.0,17.688841900327482,0.0,0,-0.0,,,,,,
149.87817782917153,2.3206474079509283,223.0,26.0,15.161864485995011,0.0,0,-0.0,,,,,,
150.87817782917153,2.3925982614832733,224.0,26.0,12.63488707166254,0.0,0,0.0,,,,,,
151.87817782917153,2.473783939103066,225.0,26.0,12.0,0.0,0,0.0,,,,,,
152.87817782917153,2.5571172724363995,226.0,26.0,12.0,0.0,0,0.0,,,,,,
153.87817782917153,2.640450605769733,227.0,26.0,12.0,0.0,0,0.0,,,,,,
154.87817782917153,2.7237839391030665,228.0,26.0,12.0,0.0,0,0.0,,,,,,
155.87817782917153,2.8071172724364,229.0,26.0,12.0,0.0,0,0.0,,,,,,
156.87817782917153,2.9737839391030665,230.0,26.0,0.0,0.0,0,0.0,,,,,,
