Distance (in),Time (s),X (in),Y (in),Velocity (in/s),Orientation (deg),Touch,Rotational Velocity (deg/s),Way X (in),Way Y (in),Way Velocity (in/s),Way Orientation (deg),Way Turn Radius (in),Touch this Point
0.0,0.0,74.0,199.0,12.0,0.0,0,0.0,74.0,199.0,12.0,0.0,3.0,0.0
0.9999999999999962,0.07936500814488488,74.8661855860486,198.50027754651043,13.200022613856351,0.0,0,0.0,100.0,184.0,48.0,0.0,20.0,0
1.9999999999999925,0.1518285981433033,75.7323711720972,198.00055509302086,14.400045227712702,0.0,0,0.0,200.0,184.0,84.0,0.0,3.0,0
2.9999999999999885,0.21849501354584613,76.5985567581458,197.5008326395313,15.600067841569054,0.0,0,0.0,282.0,184.0,12.0,0.0,3.0,0
3.999999999999985,0.2802231070220289,77.4647423441944,197.00111018604173,16.800090455425405,0.0,0,0.0,,,,,,
4.999999999999981,0.3376940352762286,78.330927930243,196.50138773255216,18.000113069281756,0.0,0,0.0,,,,,,
5.999999999999978,0.3914571166284707,79.19711351629161,196.0016652790626,19.200135683138107,0.0,0,0.0,,,,,,
6.999999999999974,0.4419617921999044,80.06329910234021,195.50194282557302,20.40015829699446,0.0,0,-0.0,,,,,,
7.999999999999971,0.4895804552326642,80.92948468838881,195.00222037208346,21.60018091085081,0.0,0,-0.0,,,,,,
8.999999999999966,0.5346251102604322,81.79567027443741,194.5024979185939,22.80020352470716,0.0,0,-0.0,,,,,,
9.999999999999963,0.5773597606555249,82.66185586048601,194.00277546510432,24.000226138563512,0.0,0,-0.0,,,,,,
10.99999999999996,0.6180097747952567,83.52804144653462,193.50305301161475,25.200248752419864,0.0,0,-0.0,,,,,,
11.999999999999956,0.6567690740309895,84.39422703258322,193.00333055812519,26.400271366276215,0.0,0,-0.0,,,,,,
12.999999999999952,0.6938057233173474,85.26041261863182,192.50360810463562,27.600293980132566,0.0,0,-0.0,,,,,,
13.999999999999948,0.7292663323363153,86.12659820468042,192.00388565114605,28.800316593988917,0.0,0,-0.0,,,,,,
14.999999999999945,0.7632795584258381,86.99278379072902,191.50416319765648,30.00033920784527,0.0,0,0.0,,,,,,
15.999999999999941,0.7959589226545978,87.85896937677762,191.0044407441669,31.20036182170162,0.0,0,0.0,,,,,,
16.999999999999936,0.8274050945581499,88.72515496282622,190.50471829067735,32.40038443555797,0.0,0,0.0,,,,,,
17.999999999999932,0.8577077614656425,89.59134054887483,190.00499583718778,33.60040704941432,0.0,0,0.0,,,,,,
18.99999999999993,0.8869471698723104,90.45752613492343,189.5052733836982,34.80042966327068,0.0,0,0.0,,,,,,
19.999999999999925,0.9151954055607253,91.32371172097203,189.00555093020864,36.00045227712703,0.0,0,0.0,,,,,,
20.999999999999922,0.9425174638648076,92.18989730702063,188.50582847671907,37.200474890983386,0.0,0,0.0,,,,,,
21.99999999999992,0.9689721500496442,93.05608289306923,188.0061060232295,38.40049750483974,0.0,0,0.0,,,,,,
22.999999999999915,0.9946128411705318,93.92226847911783,187.50638356973994,39.600520118696096,0.0,0,0.0,,,,,,
23.99999999999991,1.0194881342210755,94.78845406516643,187.00666111625037,40.80054273255245,0.0,0,0.0,,,,,,
24.99995548130232,1.0436413406134961,95.6560319731889,186.50944935241318,42.000511922964954,0.0,0,0.0,,,,,,
25.999851317890812,1.0671128200162683,96.5423170357027,186.0465341636454,43.200409538371964,0.0,0,0.0,,,,,,
26.999747154479305,1.0899413053151354,97.45063058924991,185.62849328948423,44.400307153778975,0.0,0,0.0,,,,,,
27.999642991067805,1.1121610864080331,98.37870232298724,185.2563716144036,45.60020476918599,0.0,0,0.0,,,,,,
28.999538827656306,1.1338037814896502,99.32421254091075,184.93109924879403,46.80010238459301,0.0,0,0.0,,,,,,
29.999434664244795,1.1548084803350667,100.28479795988783,184.65348920417094,48.406769558413444,0.0,0,0.0,,,,,,
30.999330500833278,1.1751273939865106,101.25805761663423,184.42423536106935,50.01343673223387,0.0,0,0.0,,,,,,
31.999226337421785,1.1948038872053608,102.24155886887198,184.24391073470395,51.62010390605433,0.0,0,0.0,,,,,,
32.99912217401027,1.2138773376391039,103.23284347566796,184.1129660427294,53.22677107987476,0.0,0,0.0,,,,,,
33.99901801059877,1.2323836100728716,104.22943374175628,184.03172857868094,54.83343825369521,0.0,0,0.0,,,,,,
34.99901801059877,1.250357307373387,105.22943374175628,184.03172857868094,56.44027280088382,0.0,0,0.0,,,,,,
35.99901801059877,1.267826481682362,106.22943374175628,184.03172857868094,58.04710734807242,0.0,0,0.0,,,,,,
36.99901801059877,1.2848186836453641,107.22943374175628,184.03172857868094,59.65394189526103,0.0,0,0.0,,,,,,
37.99901801059877,1.3013592671863525,108.22943374175628,184.03172857868094,61.26077644244963,0.0,0,0.0,,,,,,
38.99901801059877,1.3174716169991156,109.22943374175628,184.03172857868094,62.86761098963824,0.0,0,0.0,,,,,,
39.99901801059877,1.3331773473332598,110.22943374175628,184.03172857868094,64.47444553682683,0.0,0,0.0,,,,,,
40.99901801059877,1.3484964763143077,111.22943374175628,184.03172857868094,66.08128008401543,0.0,0,0.0,,,,,,
41.99901801059877,1.3634475793245127,112.22943374175628,184.03172857868094,67.68811463120403,0.0,0,0.0,,,,,,
42.99901801059877,1.3780479243918413,113.22943374175628,184.03172857868094,69.29494917839263,0.0,0,0.0,,,,,,
43.99901801059877,1.3923135920616427,114.22943374175628,184.03172857868094,70.90178372558123,0.0,0,0.0,,,,,,
44.99901801059877,1.4062595818373564,115.22943374175628,184.03172857868094,72.50861827276982,0.0,0,0.0,,,,,,
45.99901801059877,1.4198999069565188,116.22943374175628,184.03172857868094,74.11545281995842,0.0,0,0.0,,,,,,
46.99901801059877,1.4332476790031512,117.22943374175628,184.03172857868094,75.72228736714702,0.0,0,0.0,,,,,,
47.99901801059877,1.4463151836369812,118.22943374175628,184.03172857868094,77.32912191433562,0.0,0,0.0,,,,,,
48.99901801059877,1.45911394853562,119.22943374175628,184.03172857868094,78.93595646152421,0.0,0,0.0,,,,,,
49.99901801059877,1.4716548044911963,120.22943374175628,184.03172857868094,80.54279100871281,0.0,0,0.0,,,,,,
50.99901801059877,1.4839479404727722,121.22943374175628,184.03172857868094,82.14962555590141,0.0,0,0.0,,,,,,
51.99901801059877,1.4960029533558492,122.22943374175628,184.03172857868094,83.75646010309,0.0,0,0.0,,,,,,
52.99901801059877,1.5079249979600984,123.22943374175628,184.03172857868094,84.0,0.0,0,0.0,,,,,,
53.99901801059877,1.5198297598648602,124.22943374175628,184.03172857868094,84.0,0.0,0,0.0,,,,,,
54.99901801059877,1.531734521769622,125.22943374175628,184.03172857868094,84.0,0.0,0,0.0,,,,,,
55.99901801059877,1.543639283674384,126.22943374175628,184.03172857868094,84.0,0.0,0,0.0,,,,,,
56.99901801059877,1.5555440455791458,127.22943374175628,184.03172857868094,84.0,0.0,0,0.0,,,,,,
57.99901801059877,1.5674488074839077,128.22943374175628,184.03172857868094,84.0,0.0,0,0.0,,,,,,
58.99901801059877,1.5793535693886696,129.22943374175628,184.03172857868094,84.0,0.0,0,0.0,,,,,,
59.99901801059877,1.5912583312934314,130.22943374175628,184.03172857868094,84.0,0.0,0,-0.0,,,,,,
60.99901801059877,1.6031630931981933,131.22943374175628,184.03172857868094,84.0,0.0,0,-0.0,,,,,,
61.99901801059877,1.6150678551029551,132.22943374175628,184.03172857868094,84.0,0.0,0,-0.0,,,,,,
62.99901801059877,1.626972617007717,133.22943374175628,184.03172857868094,84.0,0.0,0,-0.0,,,,,,
63.99901801059877,1.6388773789124789,134.22943374175628,184.03172857868094,84.0,0.0,0,-0.0,,,,,,
64.99901801059877,1.650782140817241,135.22943374175628,184.03172857868094,84.0,0.0,0,-0.0,,,,,,
65.99901801059877,1.6626869027220028,136.22943374175628,184.03172857868094,84.0,0.0,0,-0.0,,,,,,
66.99901801059877,1.6745916646267647,137.22943374175628,184.03172857868094,84.0,0.0,0,-0.0,,,,,,
67.99901801059877,1.6864964265315265,138.22943374175628,184.03172857868094,84.0,0.0,0,-0.0,,,,,,
68.99901801059877,1.6984011884362884,139.22943374175628,184.03172857868094,84.0,0.0,0,-0.0,,,,,,
69.99901801059877,1.7103059503410503,140.22943374175628,184.03172857868094,84.0,0.0,0,-0.0,,,,,,
70.99901801059877,1.7222107122458121,141.22943374175628,184.03172857868094,84.0,0.0,0,-0.0,,,,,,
71.99901801059877,1.734115474150574,142.22943374175628,184.03172857868094,84.0,0.0,0,-0.0,,,,,,
72.99901801059877,1.7460202360553359,143.22943374175628,184.03172857868094,84.0,0.0,0,-0.0,,,,,,
73.99901801059877,1.7579249979600977,144.22943374175628,184.03172857868094,84.0,0.0,0,-0.0,,,,,,
74.99901801059877,1.7698297598648596,145.22943374175628,184.03172857868094,84.0,0.0,0,-0.0,,,,,,
75.99901801059877,1.7817345217696214,146.22943374175628,184.03172857868094,84.0,0.0,0,-0.0,,,,,,
76.99901801059877,1.7936392836743833,147.22943374175628,184.03172857868094,84.0,0.0,0,-0.0,,,,,,
77.99901801059877,1.8055440455791452,148.22943374175628,184.03172857868094,84.0,0.0,0,-0.0,,,,,,
78.99901801059877,1.817448807483907,149.22943374175628,184.03172857868094,84.0,0.0,0,-0.0,,,,,,
79.99901801059877,1.8293535693886689,150.22943374175628,184.03172857868094,84.0,0.0,0,-0.0,,,,,,
80.99901801059877,1.8412583312934308,151.22943374175628,184.03172857868094,84.0,0.0,0,-0.0,,,,,,
81.99901801059877,1.8531630931981926,152.22943374175628,184.03172857868094,84.0,0.0,0,-0.0,,,,,,
82.99901801059877,1.8650678551029545,153.22943374175628,184.03172857868094,84.0,0.0,0,-0.0,,,,,,
83.99901801059877,1.8769726170077163,154.22943374175628,184.03172857868094,84.0,0.0,0,-0.0,,,,,,
84.99901801059877,1.8888773789124782,155.22943374175628,184.03172857868094,84.0,0.0,0,-0.0,,,,,,
85.99901801059877,1.90078214081724,156.22943374175628,184.03172857868094,84.0,0.0,0,-0.0,,,,,,
86.99901801059877,1.912686902722002,157.22943374175628,184.03172857868094,84.0,0.0,0,-0.0,,,,,,
87.99901801059877,1.9245916646267638,158.22943374175628,184.03172857868094,84.0,0.0,0,-0.0,,,,,,
88.99901801059877,1.9364964265315256,159.22943374175628,184.03172857868094,84.0,0.0,0,-0.0,,,,,,
89.99901801059877,1.9484011884362875,160.22943374175628,184.03172857868094,84.0,0.0,0,-0.0,,,,,,
90.99901801059877,1.9603059503410494,161.22943374175628,184.03172857868094,84.0,0.0,0,-0.0,,,,,,
91.99901801059877,1.9722107122458112,162.22943374175628,184.03172857868094,84.0,0.0,0,0.0,,,,,,
92.99901801059877,1.984115474150573,163.22943374175628,184.03172857868094,84.0,0.0,0,0.0,,,,,,
93.99901801059877,1.996020236055335,164.22943374175628,184.03172857868094,84.0,0.0,0,0.0,,,,,,
94.99901801059877,2.007924997960097,165.22943374175628,184.03172857868094,84.0,0.0,0,0.0,,,,,,
95.99901801059877,2.0198297598648587,166.22943374175628,184.03172857868094,84.0,0.0,0,0.0,,,,,,
96.99901801059877,2.0317345217696205,167.22943374175628,184.03172857868094,84.0,0.0,0,0.0,,,,,,
97.99901801059877,2.0436392836743824,168.22943374175628,184.03172857868094,84.0,0.0,0,0.0,,,,,,
98.99901801059877,2.0555440455791443,169.22943374175628,184.03172857868094,84.0,0.0,0,0.0,,,,,,
99.99901801059877,2.067448807483906,170.22943374175628,184.03172857868094,84.0,0.0,0,0.0,,,,,,
100.99901801059877,2.079353569388668,171.22943374175628,184.03172857868094,84.0,0.0,0,0.0,,,,,,
101.99901801059877,2.09125833129343,172.22943374175628,184.03172857868094,84.0,0.0,0,0.0,,,,,,
102.99901801059877,2.1031630931981917,173.22943374175628,184.03172857868094,84.0,0.0,0,0.0,,,,,,
103.99901801059877,2.1150678551029536,174.22943374175628,184.03172857868094,84.0,0.0,0,0.0,,,,,,
104.99901801059877,2.1269726170077154,175.22943374175628,184.03172857868094,84.0,0.0,0,0.0,,,,,,
105.99901801059877,2.1388773789124773,176.22943374175628,184.03172857868094,84.0,0.0,0,0.0,,,,,,
106.99901801059877,2.150782140817239,177.22943374175628,184.03172857868094,84.0,0.0,0,0.0,,,,,,
107.99901801059877,2.162686902722001,178.22943374175628,184.03172857868094,84.0,0.0,0,0.0,,,,,,
108.99901801059877,2.174591664626763,179.22943374175628,184.03172857868094,84.0,0.0,0,0.0,,,,,,
109.99901801059877,2.1864964265315248,180.22943374175628,184.03172857868094,84.0,0.0,0,0.0,,,,,,
110.99901801059877,2.1984011884362866,181.22943374175628,184.03172857868094,84.0,0.0,0,0.0,,,,,,
111.99901801059877,2.2103059503410485,182.22943374175628,184.03172857868094,84.0,0.0,0,0.0,,,,,,
112.99901801059877,2.2222107122458103,183.22943374175628,184.03172857868094,84.0,0.0,0,0.0,,,,,,
113.99901801059877,2.234115474150572,184.22943374175628,184.03172857868094,84.0,0.0,0,0.0,,,,,,
114.99901801059877,2.246020236055334,185.22943374175628,184.03172857868094,84.0,0.0,0,0.0,,,,,,
115.99901801059877,2.257924997960096,186.22943374175628,184.03172857868094,84.0,0.0,0,0.0,,,,,,
116.99901801059877,2.269829759864858,187.22943374175628,184.03172857868094,84.0,0.0,0,0.0,,,,,,
117.99901801059877,2.2817345217696197,188.22943374175628,184.03172857868094,84.0,0.0,0,0.0,,,,,,
118.99901801059877,2.2936392836743815,189.22943374175628,184.03172857868094,84.0,0.0,0,0.0,,,,,,
119.99901801059877,2.3055440455791434,190.22943374175628,184.03172857868094,84.0,0.0,0,0.0,,,,,,
120.99901801059877,2.3174488074839052,191.22943374175628,184.03172857868094,84.0,0.0,0,0.0,,,,,,
121.99901801059877,2.329353569388667,192.22943374175628,184.03172857868094,84.0,0.0,0,0.0,,,,,,
122.99901801059877,2.341258331293429,193.22943374175628,184.03172857868094,84.0,0.0,0,0.0,,,,,,
123.99901801059877,2.353163093198191,194.22943374175628,184.03172857868094,84.0,0.0,0,0.0,,,,,,
124.99901801059877,2.3650678551029527,195.22943374175628,184.03172857868094,84.0,0.0,0,0.0,,,,,,
125.99901801059877,2.3769726170077146,196.22943374175628,184.03172857868094,84.0,0.0,0,0.0,,,,,,
126.99901801059877,2.3888773789124764,197.22943374175628,184.03172857868094,84.0,0.0,0,0.0,,,,,,
127.99901801059877,2.4007821408172383,198.22943374175628,184.03172857868094,84.0,0.0,0,0.0,,,,,,
128.99901801059877,2.412686902722,199.22943374175628,184.03172857868094,84.0,0.0,0,0.0,,,,,,
129.77023721487785,2.4219052406551778,200.0,184.0,83.32283191819398,0.0,0,0.0,,,,,,
130.77023721487785,2.4339703234478907,201.0,184.0,82.44478313770618,0.0,0,0.0,,,,,,
131.77023721487785,2.446164589012575,202.0,184.0,81.56673435721838,0.0,0,0.0,,,,,,
132.77023721487785,2.4584908336509,203.0,184.0,80.68868557673058,0.0,0,0.0,,,,,,
133.77023721487785,2.470951945451437,204.0,184.0,79.81063679624278,0.0,0,0.0,,,,,,
134.77023721487785,2.483550908351231,205.0,184.0,78.93258801575497,0.0,0,0.0,,,,,,
135.77023721487785,2.4962908064245424,206.0,184.0,78.05453923526717,0.0,0,0.0,,,,,,
136.77023721487785,2.5091748284141757,207.0,184.0,77.17649045477937,0.0,0,0.0,,,,,,
137.77023721487785,2.5222062725220513,208.0,184.0,76.29844167429157,0.0,0,0.0,,,,,,
138.77023721487785,2.5353885514770242,209.0,184.0,75.42039289380376,0.0,0,0.0,,,,,,
139.77023721487785,2.548725197899429,210.0,184.0,74.54234411331596,0.0,0,0.0,,,,,,
140.77023721487785,2.562219869983447,211.0,184.0,73.66429533282816,0.0,0,0.0,,,,,,
141.77023721487785,2.575876357520162,212.0,184.0,72.78624655234036,0.0,0,0.0,,,,,,
142.77023721487785,2.5896985882861125,213.0,184.0,71.90819777185256,0.0,0,0.0,,,,,,
143.77023721487785,2.6036906348242823,214.0,184.0,71.03014899136475,0.0,0,0.0,,,,,,
144.77023721487785,2.6178567216468194,215.0,184.0,70.15210021087695,0.0,0,0.0,,,,,,
145.77023721487785,2.6322012328913518,216.0,184.0,69.27405143038915,0.0,0,0.0,,,,,,
146.77023721487785,2.6467287204656182,217.0,184.0,68.39600264990135,0.0,0,0.0,,,,,,
147.77023721487785,2.661443912718268,218.0,184.0,67.51795386941355,0.0,0,0.0,,,,,,
148.77023721487785,2.6763517236771555,219.0,184.0,66.63990508892574,0.0,0,0.0,,,,,,
149.77023721487785,2.69145726290029,220.0,184.0,65.76185630843794,0.0,0,0.0,,,,,,
150.77023721487785,2.7067658459888544,221.0,184.0,64.88380752795014,0.0,0,0.0,,,,,,
151.77023721487785,2.722283005816411,222.0,184.0,64.00575874746234,0.0,0,0.0,,,,,,
152.77023721487785,2.7380145045336555,223.0,184.0,63.127709966974535,0.0,0,0.0,,,,,,
153.77023721487785,2.753966346413894,224.0,184.0,62.24966118648673,0.0,0,0.0,,,,,,
154.77023721487785,2.770144791610899,225.0,184.0,61.37161240599893,0.0,0,0.0,,,,,,
155.77023721487785,2.7865563709080305,226.0,184.0,60.49356362551113,0.0,0,0.0,,,,,,
156.77023721487785,2.8032079015455804,227.0,184.0,59.61551484502333,0.0,0,0.0,,,,,,
157.77023721487785,2.8201065042223337,228.0,184.0,58.737466064535525,0.0,0,0.0,,,,,,
158.77023721487785,2.8372596213774526,229.0,184.0,57.85941728404772,0.0,0,0.0,,,,,,
159.77023721487785,2.8546750368701583,230.0,184.0,56.98136850355992,0.0,0,0.0,,,,,,
160.77023721487785,2.872360897187444,231.0,184.0,56.10331972307212,0.0,0,0.0,,,,,,
161.77023721487785,2.8903257343244415,232.0,184.0,55.22527094258432,0.0,0,0.0,,,,,,
162.77023721487785,2.908578490498286,233.0,184.0,54.347222162096514,0.0,0,0.0,,,,,,
163.77023721487785,2.9271285448746562,234.0,184.0,53.46917338160871,0.0,0,0.0,,,,,,
164.77023721487785,2.9459857425069473,235.0,184.0,52.59112460112091,0.0,0,0.0,,,,,,
165.77023721487785,2.9651604257115833,236.0,184.0,51.71307582063311,0.0,0,0.0,,,,,,
166.77023721487785,2.9846634681297863,237.0,184.0,50.835027040145306,0.0,0,0.0,,,,,,
167.77023721487785,3.00450631175663,238.0,184.0,49.956978259657504,0.0,0,0.0,,,,,,
168.77023721487785,3.0247010072530784,239.0,184.0,49.0789294791697,0.0,0,0.0,,,,,,
169.77023721487785,3.0452602578965933,240.0,184.0,48.2008806986819,0.0,0,0.0,,,,,,
170.77023721487785,3.0661974675716563,241.0,184.0,47.3228319181941,0.0,0,0.0,,,,,,
171.77023721487785,3.0875267932541712,242.0,184.0,46.444783137706295,0.0,0,0.0,,,,,,
172.77023721487785,3.1092632025043536,243.0,184.0,45.56673435721849,0.0,0,0.0,,,,,,
173.77023721487785,3.131422536552809,244.0,184.0,44.68868557673069,0.0,0,0.0,,,,,,
174.77023721487785,3.154021579645717,245.0,184.0,43.81063679624289,0.0,0,0.0,,,,,,
175.77023721487785,3.1770781354094053,246.0,184.0,42.93258801575509,0.0,0,0.0,,,,,,
176.77023721487785,3.200611111104568,247.0,184.0,42.054539235267285,0.0,0,-0.0,,,,,,
177.77023721487785,3.2246406107689123,248.0,184.0,41.17649045477948,0.0,0,-0.0,,,,,,
178.77023721487785,3.249188038397715,249.0,184.0,40.29844167429168,0.0,0,-0.0,,,,,,
179.77023721487785,3.274276212489016,250.0,184.0,39.42039289380388,0.0,0,-0.0,,,,,,
180.77023721487785,3.2999294934893655,251.0,184.0,38.54234411331608,0.0,0,-0.0,,,,,,
181.77023721487785,3.3261739259238046,252.0,184.0,37.664295332828274,0.0,0,-0.0,,,,,,
182.77023721487785,3.3530373972882543,253.0,184.0,36.78624655234047,0.0,0,-0.0,,,,,,
183.77023721487785,3.3805498161339185,254.0,184.0,35.90819777185267,0.0,0,-0.0,,,,,,
184.77023721487785,3.408743312194318,255.0,184.0,35.03014899136487,0.0,0,-0.0,,,,,,
185.77023721487785,3.4376524619120925,256.0,184.0,34.152100210877066,0.0,0,-0.0,,,,,,
186.77023721487785,3.4673145433347545,257.0,184.0,33.274051430389264,0.0,0,-0.0,,,,,,
187.77023721487785,3.497769825091561,258.0,184.0,32.39600264990146,0.0,0,-0.0,,,,,,
188.77023721487785,3.5290618950699795,259.0,184.0,31.517953869413656,0.0,0,-0.0,,,,,,
189.77023721487785,3.5612380355213498,260.0,184.0,30.63990508892585,0.0,0,-0.0,,,,,,
190.77023721487785,3.5943496526949392,261.0,184.0,29.761856308438045,0.0,0,-0.0,,,,,,
191.77023721487785,3.628452770797237,262.0,184.0,28.88380752795024,0.0,0,-0.0,,,,,,
192.77023721487785,3.663608602190249,263.0,184.0,28.005758747462433,0.0,0,-0.0,,,,,,
193.77023721487785,3.6998842083988657,264.0,184.0,27.127709966974628,0.0,0,-0.0,,,,,,
194.77023721487785,3.737353269852828,265.0,184.0,26.249661186486822,0.0,0,-0.0,,,,,,
195.77023721487785,3.776096986557468,266.0,184.0,25.371612405999016,0.0,0,-0.0,,,,,,
196.77023721487785,3.816205137358664,267.0,184.0,24.49356362551121,0.0,0,-0.0,,,,,,
197.77023721487785,3.8577773325364397,268.0,184.0,23.615514845023405,0.0,0,0.0,,,,,,
198.77023721487785,3.9009245036731195,269.0,184.0,22.7374660645356,0.0,0,0.0,,,,,,
199.77023721487785,3.94577068685519,270.0,184.0,21.859417284047794,0.0,0,0.0,,,,,,
200.77023721487785,3.99245517135357,271.0,184.0,20.981368503559988,0.0,0,0.0,,,,,,
201.77023721487785,4.041135107512939,272.0,184.0,20.103319723072183,0.0,0,0.0,,,,,,
202.77023721487785,4.091988696877546,273.0,184.0,19.225270942584377,0.0,0,0.0,,,,,,
203.77023721487785,4.145219127832122,274.0,184.0,18.34722216209657,0.0,0,0.0,,,,,,
204.77023721487785,4.201059476075972,275.0,184.0,17.469173381608766,0.0,0,0.0,,,,,,
205.77023721487785,4.2597788684023135,276.0,184.0,16.59112460112096,0.0,0,0.0,,,,,,
206.77023721487785,4.321690321832165,277.0,184.0,15.713075820633154,0.0,0,0.0,,,,,,
