Distance (in),Time (s),X (in),Y (in),Velocity (in/s),Orientation (deg),Touch,Rotational Velocity (deg/s),Way X (in),Way Y (in),Way Velocity (in/s),Way Orientation (deg),Way Turn Radius (in),Touch this Point
0.0,0.0,74.0,199.0,12.0,0.0,0,0.0,74.0,199.0,12.0,0.0,3.0,0.0
1.0000000000000038,0.07909591357879814,74.94498607344026,198.67288943611683,13.285756362211266,0.0,0,0.0,100.0,190.0,48.0,0.0,20.0,0.0
2.0000000000000075,0.1508904600499606,75.88997214688052,198.34577887223367,14.571512724422533,0.0,0,0.0,200.0,190.0,84.0,0.0,3.0,0.0
3.0000000000000115,0.2166177051437259,76.83495822032079,198.0186683083505,15.8572690866338,0.0,0,0.0,282.0,190.0,12.0,0.0,3.0,0.0
4.000000000000015,0.2772232248262788,77.77994429376105,197.69155774446733,17.143025448845066,0.0,0,0.0,,,,,,
5.000000000000019,0.3334475258685968,78.72493036720131,197.36444718058416,18.428781811056332,0.0,0,0.0,,,,,,
6.000000000000022,0.3858813465434086,79.66991644064157,197.037336616701,19.7145381732676,0.0,0,-0.0,,,,,,
7.000000000000026,0.435003493607281,80.61490251408183,196.71022605281783,21.000294535478865,0.0,0,-0.0,,,,,,
8.00000000000003,0.48120744037122914,81.5598885875221,196.38311548893466,22.28605089769013,0.0,0,-0.0,,,,,,
9.000000000000034,0.5248204672406255,82.50487466096236,196.0560049250515,23.571807259901398,0.0,0,-0.0,,,,,,
10.000000000000037,0.566117720613429,83.44986073440262,195.72889436116833,24.857563622112664,0.0,0,-0.0,,,,,,
11.00000000000004,0.605332727463773,84.39484680784288,195.40178379728516,26.14331998432393,0.0,0,-0.0,,,,,,
12.000000000000044,0.6426653863884952,85.33983288128314,195.074673233402,27.429076346535197,0.0,0,-0.0,,,,,,
13.000000000000048,0.6782881286174114,86.2848189547234,194.74756266951883,28.714832708746464,0.0,0,-0.0,,,,,,
14.000000000000052,0.7123507298792034,87.22980502816367,194.42045210563566,30.00058907095773,0.0,0,0.0,,,,,,
15.000000000000055,0.7449841127720178,88.17479110160393,194.0933415417525,31.286345433168997,0.0,0,0.0,,,,,,
16.00000000000006,0.7763033835466737,89.11977717504419,193.76623097786933,32.57210179538026,0.0,0,0.0,,,,,,
17.000000000000064,0.8064102811184302,90.06476324848445,193.43912041398616,33.85785815759153,0.0,0,0.0,,,,,,
18.000000000000068,0.835395169735963,91.00974932192472,193.112009850103,35.143614519802796,0.0,0,0.0,,,,,,
19.00000000000007,0.8633386736819257,91.95473539536498,192.78489928621983,36.42937088201406,0.0,0,0.0,,,,,,
20.000000000000075,0.890313028496423,92.89972146880524,192.45778872233666,37.71512724422533,0.0,0,0.0,,,,,,
21.000000000000078,0.9163832057361295,93.8447075422455,192.1306781584535,39.000883606436595,0.0,0,0.0,,,,,,
22.00000000000008,0.9416078553382328,94.78969361568576,191.80356759457032,40.28663996864786,0.0,0,0.0,,,,,,
23.000000000000085,0.9660400999676757,95.73467968912603,191.47645703068716,41.57239633085913,0.0,0,0.0,,,,,,
24.00000000000009,0.9897282083966895,96.67966576256629,191.149346466804,42.858152693070394,0.0,0,0.0,,,,,,
24.999396187620782,1.0127024939629128,97.62982778858164,190.83953222544446,44.14313269967338,0.0,0,0.0,,,,,,
25.99929202420927,1.0350286023163524,98.59461780907063,190.5769072068498,45.42875513311558,0.0,0,0.0,,,,,,
26.999187860797754,1.0567317028577132,99.57132787351952,190.36282980488681,46.71437756655777,0.0,0,0.0,,,,,,
27.99908369738626,1.0777737134201641,100.557516715428,190.19783510157106,48.323673442959986,0.0,0,0.0,,,,,,
28.998979533974747,1.0981264510769388,101.55071937628846,190.08233549773325,49.93296931936217,0.0,0,0.0,,,,,,
29.998979533974747,1.117835660968026,102.55071937628846,190.08233549773325,51.542432842975686,0.0,0,0.0,,,,,,
30.998979533974747,1.1369388923951709,103.55071937628846,190.08233549773325,53.1518963665892,0.0,0,0.0,,,,,,
31.998979533974747,1.1554722966253312,104.55071937628846,190.08233549773325,54.76135989020271,0.0,0,0.0,,,,,,
32.99897953397475,1.173468883577364,105.55071937628846,190.08233549773325,56.370823413816225,0.0,0,0.0,,,,,,
33.99897953397475,1.190958875531589,106.55071937628846,190.08233549773325,57.98028693742974,0.0,0,0.0,,,,,,
34.99897953397475,1.2079700124186303,107.55071937628846,190.08233549773325,59.58975046104325,0.0,0,0.0,,,,,,
35.99897953397475,1.2245278164297666,108.55071937628846,190.08233549773325,61.199213984656765,0.0,0,0.0,,,,,,
36.99897953397475,1.2406558222842494,109.55071937628846,190.08233549773325,62.80867750827028,0.0,0,0.0,,,,,,
37.99897953397475,1.2563757783670055,110.55071937628846,190.08233549773325,64.41814103188379,0.0,0,0.0,,,,,,
38.99897953397475,1.2717078230495995,111.55071937628846,190.08233549773325,66.0276045554973,0.0,0,0.0,,,,,,
39.99897953397475,1.2866706397802947,112.55071937628846,190.08233549773325,67.63706807911082,0.0,0,0.0,,,,,,
40.99897953397475,1.3012815939387818,113.55071937628846,190.08233549773325,69.24653160272433,0.0,0,0.0,,,,,,
41.99897953397475,1.3155568539693716,114.55071937628846,190.08233549773325,70.85599512633785,0.0,0,0.0,,,,,,
42.99897953397475,1.3295114989112364,115.55071937628846,190.08233549773325,72.46545864995136,0.0,0,0.0,,,,,,
43.99897953397475,1.3431596141185298,116.55071937628846,190.08233549773325,74.07492217356487,0.0,0,0.0,,,,,,
44.99897953397475,1.3565143766934624,117.55071937628846,190.08233549773325,75.68438569717839,0.0,0,0.0,,,,,,
45.99897953397475,1.369588131931078,118.55071937628846,190.08233549773325,77.2938492207919,0.0,0,0.0,,,,,,
46.99897953397475,1.382392461887122,119.55071937628846,190.08233549773325,78.90331274440541,0.0,0,0.0,,,,,,
47.99897953397475,1.3949382470233018,120.55071937628846,190.08233549773325,80.51277626801892,0.0,0,0.0,,,,,,
48.99897953397475,1.4072357217520308,121.55071937628846,190.08233549773325,82.12223979163244,0.0,0,0.0,,,,,,
49.99897953397475,1.4192945245910515,122.55071937628846,190.08233549773325,83.73170331524595,0.0,0,0.0,,,,,,
50.99897953397475,1.431218328859831,123.55071937628846,190.08233549773325,84.0,0.0,0,0.0,,,,,,
51.99897953397475,1.4431230907645929,124.55071937628846,190.08233549773325,84.0,0.0,0,0.0,,,,,,
52.99897953397475,1.4550278526693547,125.55071937628846,190.08233549773325,84.0,0.0,0,0.0,,,,,,
53.99897953397475,1.4669326145741166,126.55071937628846,190.08233549773325,84.0,0.0,0,0.0,,,,,,
54.99897953397475,1.4788373764788785,127.55071937628846,190.08233549773325,84.0,0.0,0,0.0,,,,,,
55.99897953397473,1.4907421383836401,128.55071937628844,190.08233549773325,84.0,0.0,0,0.0,,,,,,
56.99897953397473,1.502646900288402,129.55071937628844,190.08233549773325,84.0,0.0,0,0.0,,,,,,
57.99897953397473,1.5145516621931638,130.55071937628844,190.08233549773325,84.0,0.0,0,-0.0,,,,,,
58.99897953397473,1.5264564240979257,131.55071937628844,190.08233549773325,84.0,0.0,0,-0.0,,,,,,
59.99897953397473,1.5383611860026876,132.55071937628844,190.08233549773325,84.0,0.0,0,-0.0,,,,,,
60.99897953397473,1.5502659479074494,133.55071937628844,190.08233549773325,84.0,0.0,0,-0.0,,,,,,
61.99897953397473,1.5621707098122113,134.55071937628844,190.08233549773325,84.0,0.0,0,-0.0,,,,,,
62.99897953397473,1.5740754717169732,135.55071937628844,190.08233549773325,84.0,0.0,0,-0.0,,,,,,
63.99897953397473,1.585980233621735,136.55071937628844,190.08233549773325,84.0,0.0,0,-0.0,,,,,,
64.99897953397473,1.5978849955264969,137.55071937628844,190.08233549773325,84.0,0.0,0,-0.0,,,,,,
65.99897953397473,1.6097897574312587,138.55071937628844,190.08233549773325,84.0,0.0,0,-0.0,,,,,,
66.99897953397473,1.6216945193360206,139.55071937628844,190.08233549773325,84.0,0.0,0,-0.0,,,,,,
67.99897953397473,1.6335992812407825,140.55071937628844,190.08233549773325,84.0,0.0,0,-0.0,,,,,,
68.99897953397473,1.6455040431455443,141.55071937628844,190.08233549773325,84.0,0.0,0,-0.0,,,,,,
69.99897953397473,1.6574088050503062,142.55071937628844,190.08233549773325,84.0,0.0,0,-0.0,,,,,,
70.99897953397473,1.669313566955068,143.55071937628844,190.08233549773325,84.0,0.0,0,-0.0,,,,,,
71.99897953397473,1.68121832885983,144.55071937628844,190.08233549773325,84.0,0.0,0,-0.0,,,,,,
72.99897953397473,1.6931230907645918,145.55071937628844,190.08233549773325,84.0,0.0,0,-0.0,,,,,,
73.99897953397473,1.7050278526693536,146.55071937628844,190.08233549773325,84.0,0.0,0,-0.0,,,,,,
74.99897953397473,1.7169326145741155,147.55071937628844,190.08233549773325,84.0,0.0,0,-0.0,,,,,,
75.99897953397473,1.7288373764788774,148.55071937628844,190.08233549773325,84.0,0.0,0,-0.0,,,,,,
76.99897953397473,1.7407421383836392,149.55071937628844,190.08233549773325,84.0,0.0,0,-0.0,,,,,,
77.99897953397473,1.752646900288401,150.55071937628844,190.08233549773325,84.0,0.0,0,-0.0,,,,,,
78.99897953397473,1.764551662193163,151.55071937628844,190.08233549773325,84.0,0.0,0,-0.0,,,,,,
79.99897953397473,1.7764564240979248,152.55071937628844,190.08233549773325,84.0,0.0,0,-0.0,,,,,,
80.99897953397473,1.7883611860026867,153.55071937628844,190.08233549773325,84.0,0.0,0,-0.0,,,,,,
81.99897953397473,1.8002659479074485,154.55071937628844,190.08233549773325,84.0,0.0,0,-0.0,,,,,,
82.99897953397473,1.8121707098122104,155.55071937628844,190.08233549773325,84.0,0.0,0,-0.0,,,,,,
83.99897953397473,1.8240754717169723,156.55071937628844,190.08233549773325,84.0,0.0,0,-0.0,,,,,,
84.99897953397473,1.8359802336217341,157.55071937628844,190.08233549773325,84.0,0.0,0,-0.0,,,,,,
85.99897953397473,1.847884995526496,158.55071937628844,190.08233549773325,84.0,0.0,0,-0.0,,,,,,
86.99897953397473,1.8597897574312579,159.55071937628844,190.08233549773325,84.0,0.0,0,-0.0,,,,,,
87.99897953397473,1.8716945193360197,160.55071937628844,190.08233549773325,84.0,0.0,0,-0.0,,,,,,
88.99897953397473,1.8835992812407816,161.55071937628844,190.08233549773325,84.0,0.0,0,-0.0,,,,,,
89.99897953397473,1.8955040431455434,162.55071937628844,190.08233549773325,84.0,0.0,0,0.0,,,,,,
90.99897953397473,1.9074088050503053,163.55071937628844,190.08233549773325,84.0,0.0,0,0.0,,,,,,
91.99897953397473,1.9193135669550672,164.55071937628844,190.08233549773325,84.0,0.0,0,0.0,,,,,,
92.99897953397473,1.931218328859829,165.55071937628844,190.08233549773325,84.0,0.0,0,0.0,,,,,,
93.99897953397473,1.9431230907645909,166.55071937628844,190.08233549773325,84.0,0.0,0,0.0,,,,,,
94.99897953397473,1.9550278526693528,167.55071937628844,190.08233549773325,84.0,0.0,0,0.0,,,,,,
95.99897953397473,1.9669326145741146,168.55071937628844,190.08233549773325,84.0,0.0,0,0.0,,,,,,
96.99897953397473,1.9788373764788765,169.55071937628844,190.08233549773325,84.0,0.0,0,0.0,,,,,,
97.99897953397473,1.9907421383836383,170.55071937628844,190.08233549773325,84.0,0.0,0,0.0,,,,,,
98.99897953397473,2.0026469002884,171.55071937628844,190.08233549773325,84.0,0.0,0,0.0,,,,,,
99.99897953397473,2.014551662193162,172.55071937628844,190.08233549773325,84.0,0.0,0,0.0,,,,,,
100.99897953397473,2.026456424097924,173.55071937628844,190.08233549773325,84.0,0.0,0,0.0,,,,,,
101.99897953397473,2.038361186002686,174.55071937628844,190.08233549773325,84.0,0.0,0,0.0,,,,,,
102.99897953397473,2.0502659479074477,175.55071937628844,190.08233549773325,84.0,0.0,0,0.0,,,,,,
103.99897953397473,2.0621707098122095,176.55071937628844,190.08233549773325,84.0,0.0,0,0.0,,,,,,
104.99897953397473,2.0740754717169714,177.55071937628844,190.08233549773325,84.0,0.0,0,0.0,,,,,,
105.99897953397473,2.0859802336217332,178.55071937628844,190.08233549773325,84.0,0.0,0,0.0,,,,,,
106.99897953397473,2.097884995526495,179.55071937628844,190.08233549773325,84.0,0.0,0,0.0,,,,,,
107.99897953397473,2.109789757431257,180.55071937628844,190.08233549773325,84.0,0.0,0,0.0,,,,,,
108.99897953397473,2.121694519336019,181.55071937628844,190.08233549773325,84.0,0.0,0,0.0,,,,,,
109.99897953397473,2.1335992812407807,182.55071937628844,190.08233549773325,84.0,0.0,0,0.0,,,,,,
110.99897953397473,2.1455040431455425,183.55071937628844,190.08233549773325,84.0,0.0,0,0.0,,,,,,
111.99897953397473,2.1574088050503044,184.55071937628844,190.08233549773325,84.0,0.0,0,0.0,,,,,,
112.99897953397473,2.1693135669550663,185.55071937628844,190.08233549773325,84.0,0.0,0,0.0,,,,,,
113.99897953397473,2.181218328859828,186.55071937628844,190.08233549773325,84.0,0.0,0,0.0,,,,,,
114.99897953397473,2.19312309076459,187.55071937628844,190.08233549773325,84.0,0.0,0,0.0,,,,,,
115.99897953397473,2.205027852669352,188.55071937628844,190.08233549773325,84.0,0.0,0,0.0,,,,,,
116.99897953397473,2.2169326145741137,189.55071937628844,190.08233549773325,84.0,0.0,0,0.0,,,,,,
117.99897953397473,2.2288373764788756,190.55071937628844,190.08233549773325,84.0,0.0,0,0.0,,,,,,
118.99897953397473,2.2407421383836374,191.55071937628844,190.08233549773325,84.0,0.0,0,0.0,,,,,,
119.99897953397473,2.2526469002883993,192.55071937628844,190.08233549773325,84.0,0.0,0,0.0,,,,,,
120.99897953397473,2.264551662193161,193.55071937628844,190.08233549773325,84.0,0.0,0,0.0,,,,,,
121.99897953397473,2.276456424097923,194.55071937628844,190.08233549773325,84.0,0.0,0,0.0,,,,,,
122.99897953397473,2.288361186002685,195.55071937628844,190.08233549773325,84.0,0.0,0,0.0,,,,,,
123.99897953397473,2.3002659479074468,196.55071937628844,190.08233549773325,84.0,0.0,0,0.0,,,,,,
124.99897953397473,2.3121707098122086,197.55071937628844,190.08233549773325,84.0,0.0,0,0.0,,,,,,
125.99897953397473,2.3240754717169705,198.55071937628844,190.08233549773325,84.0,0.0,0,0.0,,,,,,
126.99897953397473,2.3359802336217323,199.55071937628844,190.08233549773325,84.0,0.0,0,0.0,,,,,,
127.45574228752369,2.341430897611504,200.0,190.0,83.59894002127409,0.0,0,0.0,,,,,,
128.4557422875237,2.3534559218363587,201.0,190.0,82.72089124078629,0.0,0,0.0,,,,,,
129.4557422875237,2.3656092678684364,202.0,190.0,81.84284246029848,0.0,0,0.0,,,,,,
130.4557422875237,2.3778937039515133,203.0,190.0,80.96479367981068,0.0,0,0.0,,,,,,
131.4557422875237,2.390312088883721,204.0,190.0,80.08674489932288,0.0,0,0.0,,,,,,
132.4557422875237,2.4028673760106893,205.0,190.0,79.20869611883508,0.0,0,0.0,,,,,,
133.4557422875237,2.415562617441244,206.0,190.0,78.33064733834728,0.0,0,0.0,,,,,,
134.4557422875237,2.4284009685007186,207.0,190.0,77.45259855785947,0.0,0,0.0,,,,,,
135.4557422875237,2.441385692438132,208.0,190.0,76.57454977737167,0.0,0,0.0,,,,,,
136.4557422875237,2.454520165404796,209.0,190.0,75.69650099688387,0.0,0,0.0,,,,,,
137.4557422875237,2.46780788172336,210.0,190.0,74.81845221639607,0.0,0,0.0,,,,,,
138.4557422875237,2.4812524594678584,211.0,190.0,73.94040343590827,0.0,0,0.0,,,,,,
139.4557422875237,2.4948576463770555,212.0,190.0,73.06235465542046,0.0,0,0.0,,,,,,
140.4557422875237,2.508627326125266,213.0,190.0,72.18430587493266,0.0,0,0.0,,,,,,
141.4557422875237,2.5225655249768995,214.0,190.0,71.30625709444486,0.0,0,0.0,,,,,,
142.4557422875237,2.5366764188532556,215.0,190.0,70.42820831395706,0.0,0,0.0,,,,,,
143.4557422875237,2.5509643408426017,216.0,190.0,69.55015953346926,0.0,0,0.0,,,,,,
144.4557422875237,2.5654337891873236,217.0,190.0,68.67211075298145,0.0,0,0.0,,,,,,
145.4557422875237,2.580089435784985,218.0,190.0,67.79406197249365,0.0,0,0.0,,,,,,
146.4557422875237,2.5949361352434903,219.0,190.0,66.91601319200585,0.0,0,0.0,,,,,,
147.4557422875237,2.6099789345342654,220.0,190.0,66.03796441151805,0.0,0,0.0,,,,,,
148.4557422875237,2.6252230832914814,221.0,190.0,65.15991563103024,0.0,0,0.0,,,,,,
149.4557422875237,2.6406740448099133,222.0,190.0,64.28186685054244,0.0,0,0.0,,,,,,
150.4557422875237,2.6563375077990785,223.0,190.0,63.40381807005464,0.0,0,0.0,,,,,,
151.4557422875237,2.6722193989569405,224.0,190.0,62.52576928956684,0.0,0,0.0,,,,,,
152.4557422875237,2.688325896432715,225.0,190.0,61.647720509079036,0.0,0,0.0,,,,,,
153.4557422875237,2.7046634442553077,226.0,190.0,60.769671728591234,0.0,0,0.0,,,,,,
154.4557422875237,2.721238767811705,227.0,190.0,59.89162294810343,0.0,0,0.0,,,,,,
155.4557422875237,2.7380588904683587,228.0,190.0,59.01357416761563,0.0,0,0.0,,,,,,
156.4557422875237,2.7551311514383663,229.0,190.0,58.13552538712783,0.0,0,0.0,,,,,,
157.4557422875237,2.7724632250082,230.0,190.0,57.257476606640026,0.0,0,0.0,,,,,,
158.4557422875237,2.790063141250048,231.0,190.0,56.379427826152224,0.0,0,0.0,,,,,,
159.4557422875237,2.8079393083596704,232.0,190.0,55.50137904566442,0.0,0,0.0,,,,,,
160.4557422875237,2.826100536775309,233.0,190.0,54.62333026517662,0.0,0,0.0,,,,,,
161.4557422875237,2.8445560652508086,234.0,190.0,53.74528148468882,0.0,0,0.0,,,,,,
162.4557422875237,2.8633155890760933,235.0,190.0,52.867232704201015,0.0,0,0.0,,,,,,
163.4557422875237,2.882389290660776,236.0,190.0,51.98918392371321,0.0,0,0.0,,,,,,
164.4557422875237,2.901787872722404,237.0,190.0,51.11113514322541,0.0,0,0.0,,,,,,
165.4557422875237,2.921522594350142,238.0,190.0,50.23308636273761,0.0,0,0.0,,,,,,
166.4557422875237,2.941605310248122,239.0,190.0,49.35503758224981,0.0,0,0.0,,,,,,
167.4557422875237,2.962048513500905,240.0,190.0,48.476988801762005,0.0,0,0.0,,,,,,
168.4557422875237,2.98286538224733,241.0,190.0,47.5989400212742,0.0,0,0.0,,,,,,
169.4557422875237,3.0040698306993545,242.0,190.0,46.7208912407864,0.0,0,0.0,,,,,,
170.4557422875237,3.0256765650004858,243.0,190.0,45.8428424602986,0.0,0,0.0,,,,,,
171.4557422875237,3.047701144485345,244.0,190.0,44.964793679810796,0.0,0,0.0,,,,,,
172.4557422875237,3.070160048979429,245.0,190.0,44.086744899322994,0.0,0,0.0,,,,,,
173.4557422875237,3.0930707528681234,246.0,190.0,43.20869611883519,0.0,0,0.0,,,,,,
174.4557422875237,3.1164518067687896,247.0,190.0,42.33064733834739,0.0,0,-0.0,,,,,,
175.4557422875237,3.1403229277620923,248.0,190.0,41.45259855785959,0.0,0,-0.0,,,,,,
176.4557422875237,3.164705099282018,249.0,190.0,40.574549777371786,0.0,0,-0.0,,,,,,
177.4557422875237,3.1896206819324124,250.0,190.0,39.696500996883984,0.0,0,-0.0,,,,,,
178.4557422875237,3.2150935366963598,251.0,190.0,38.81845221639618,0.0,0,-0.0,,,,,,
179.4557422875237,3.2411491622395467,252.0,190.0,37.94040343590838,0.0,0,-0.0,,,,,,
180.4557422875237,3.2678148482875806,253.0,190.0,37.06235465542058,0.0,0,-0.0,,,,,,
181.4557422875237,3.2951198473895014,254.0,190.0,36.184305874932775,0.0,0,-0.0,,,,,,
182.4557422875237,3.323095567777333,255.0,190.0,35.30625709444497,0.0,0,-0.0,,,,,,
183.4557422875237,3.351775790509191,256.0,190.0,34.42820831395717,0.0,0,-0.0,,,,,,
184.4557422875237,3.381196914659875,257.0,190.0,33.55015953346937,0.0,0,-0.0,,,,,,
185.4557422875237,3.411398235021572,258.0,190.0,32.67211075298157,0.0,0,-0.0,,,,,,
186.4557422875237,3.442422257628232,259.0,190.0,31.79406197249376,0.0,0,-0.0,,,,,,
187.4557422875237,3.4743150594587777,260.0,190.0,30.916013192005956,0.0,0,-0.0,,,,,,
188.4557422875237,3.5071266999559576,261.0,190.0,30.03796441151815,0.0,0,-0.0,,,,,,
189.4557422875237,3.540911693583474,262.0,190.0,29.159915631030344,0.0,0,-0.0,,,,,,
190.4557422875237,3.5757295546176717,263.0,190.0,28.28186685054254,0.0,0,-0.0,,,,,,
191.4557422875237,3.6116454278416756,264.0,190.0,27.403818070054733,0.0,0,-0.0,,,,,,
192.4557422875237,3.648730821925322,265.0,190.0,26.525769289566927,0.0,0,-0.0,,,,,,
193.4557422875237,3.687064466228562,266.0,190.0,25.64772050907912,0.0,0,-0.0,,,,,,
194.4557422875237,3.7267333168222594,267.0,190.0,24.769671728591316,0.0,0,-0.0,,,,,,
195.4557422875237,3.7678337440362903,268.0,190.0,23.89162294810351,0.0,0,0.0,,,,,,
196.4557422875237,3.8104729423124604,269.0,190.0,23.013574167615705,0.0,0,0.0,,,,,,
197.4557422875237,3.8547706142422182,270.0,190.0,22.1355253871279,0.0,0,0.0,,,,,,
198.4557422875237,3.900860995366051,271.0,190.0,21.257476606640093,0.0,0,0.0,,,,,,
199.4557422875237,3.9488953059673175,272.0,190.0,20.379427826152288,0.0,0,0.0,,,,,,
200.4557422875237,3.9990447426732576,273.0,190.0,19.501379045664482,0.0,0,0.0,,,,,,
201.4557422875237,4.051504159050533,274.0,190.0,18.623330265176676,0.0,0,0.0,,,,,,
202.4557422875237,4.106496634808352,275.0,190.0,17.74528148468887,0.0,0,0.0,,,,,,
203.4557422875237,4.16427920411509,276.0,190.0,16.867232704201065,0.0,0,0.0,,,,,,
204.4557422875237,4.225150114739617,277.0,190.0,15.98918392371326,0.0,0,0.0,,,,,,
205.4557422875237,4.289458136650753,278.0,190.0,15.111135143225454,0.0,0,0.0,,,,,,
206.4557422875237,4.357614655970701,279.0,190.0,14.233086362737648,0.0,0,0.0,,,,,,
207.4557422875237,4.4301096180778785,280.0,190.0,13.355037582249842,0.0,0,0.0,,,,,,
