Distance (in),Time (s),X (in),Y (in),Velocity (in/s),Orientation (deg),Touch,Rotational Velocity (deg/s),Way X (in),Way Y (in),Way Velocity (in/s),Way Orientation (deg),Way Turn Radius (in),Touch this Point
0.0,0.0,282.0,281.6,12.0,0.0,0,0.0,282.0,281.6,12.0,0.0,3.0,0
1.000000000000023,0.07693811714231831,281.00254130016924,281.6712470499879,13.994917399661517,0.0,0,0.0,240.0,284.6,96.0,0.0,10.0,0
2.000000000000046,0.14363868504188484,280.0050826003385,281.74249409997583,15.989834799323035,0.0,0,0.0,130.0,284.6,96.0,0.0,10.0,0
3.0000000000000693,0.20250621447203435,279.0076239005077,281.81374114996373,17.984752198984552,0.0,0,0.0,78.0,275.6,12.0,0.0,3.0,0
4.000000000000092,0.2551871168880134,278.01016520067697,281.88498819995164,19.97966959864607,0.0,0,0.0,,,,,,
5.0000000000001155,0.30285808432318106,277.0127065008462,281.95623524993954,21.974586998307586,0.0,0,0.0,,,,,,
6.0000000000001386,0.3463892531681509,276.01524780101545,282.02748229992744,23.969504397969104,0.0,0,0.0,,,,,,
7.000000000000162,0.3864421821560639,275.0177891011847,282.09872934991535,25.96442179763062,0.0,0,-0.0,,,,,,
8.000000000000185,0.42353158324936596,274.02033040135393,282.16997639990325,27.959339197292138,0.0,0,-0.0,,,,,,
9.000000000000208,0.4580657884316103,273.0228717015232,282.24122344989115,29.954256596953655,0.0,0,-0.0,,,,,,
10.000000000000231,0.4903741755568923,272.0254130016924,282.31247049987905,31.949173996615173,0.0,0,-0.0,,,,,,
11.000000000000254,0.5207262910284044,271.02795430186166,282.38371754986696,33.94409139627669,0.0,0,-0.0,,,,,,
12.000000000000277,0.5493455136229802,270.0304956020309,282.45496459985486,35.93900879593821,0.0,0,-0.0,,,,,,
13.0000000000003,0.5764190284390511,269.03303690220014,282.52621164984276,37.933926195599724,0.0,0,-0.0,,,,,,
14.000000000000323,0.6021052454253212,268.0355782023694,282.59745869983067,39.92884359526124,0.0,0,-0.0,,,,,,
15.000000000000346,0.6265394098604489,267.0381195025386,282.66870574981857,41.92376099492276,0.0,0,-0.0,,,,,,
16.00000000000037,0.6498379089970486,266.04066080270786,282.7399527998065,43.918678394584276,0.0,0,-0.0,,,,,,
17.00000000000039,0.6721016223234638,265.0432021028771,282.8111998497944,45.91359579424579,0.0,0,-0.0,,,,,,
18.000000000000412,0.6934185594672727,264.04574340304634,282.8824468997823,47.90851319390731,0.0,0,0.0,,,,,,
19.000000000000433,0.713865960086829,263.0482847032156,282.9536939497702,49.90343059356883,0.0,0,0.0,,,,,,
20.000000000000455,0.7335119822660465,262.0508260033848,283.0249409997581,51.898347993230345,0.0,0,0.0,,,,,,
21.000000000000476,0.7524170725277893,261.05336730355407,283.096188049746,53.89326539289186,0.0,0,0.0,,,,,,
22.000000000000497,0.7706350868923074,260.0559086037233,283.1674350997339,55.88818279255338,0.0,0,0.0,,,,,,
23.00000000000052,0.788214215364189,259.05844990389255,283.2386821497218,57.8831001922149,0.0,0,0.0,,,,,,
24.00000000000054,0.8051977498077643,258.0609912040618,283.3099291997097,59.878017591876414,0.0,0,0.0,,,,,,
25.00000000000056,0.8216247260043554,257.06353250423103,283.3811762496976,61.87293499153793,0.0,0,0.0,,,,,,
26.000000000000583,0.8375304638451113,256.0660738044003,283.4524232996855,63.86785239119945,0.0,0,0.0,,,,,,
27.00000000000058,0.8529470244563234,255.06861510456955,283.5236703496734,65.86276979086091,0.0,0,0.0,,,,,,
28.000000000000576,0.8679035991282036,254.07115640473882,283.5949173996613,67.85768719052237,0.0,0,0.0,,,,,,
29.000000000000572,0.882426841902134,253.07369770490808,283.6661644496492,69.85260459018383,0.0,0,0.0,,,,,,
30.00000000000057,0.8965411553348073,252.07623900507735,283.7374114996371,71.84752198984529,0.0,0,0.0,,,,,,
31.000000000000565,0.9102689371329803,251.07878030524662,283.808658549625,73.84243938950675,0.0,0,0.0,,,,,,
32.00000000000056,0.9236307939169952,250.0813216054159,283.8799055996129,75.83735678916821,0.0,0,0.0,,,,,,
33.000000000000554,0.9366457272338218,249.08386290558516,283.95115264960083,77.83227418882967,0.0,0,0.0,,,,,,
34.00000000000055,0.9493312960332544,248.08640420575443,284.02239969958873,79.82719158849113,0.0,0,0.0,,,,,,
35.00000000000054,0.9617037590928871,247.0889455059237,284.09364674957664,81.82210898815259,0.0,0,0.0,,,,,,
36.00000000000053,0.9737782002897721,246.09148680609297,284.16489379956454,83.81702638781405,0.0,0,0.0,,,,,,
37.000000000000526,0.985568639139535,245.09402810626224,284.23614084955244,85.81194378747551,0.0,0,0.0,,,,,,
38.00000000000052,0.9970881286343074,244.0965694064315,284.30738789954034,87.80686118713697,0.0,0,0.0,,,,,,
39.00000000000051,1.0083488420914097,243.09911070660078,284.37863494952825,89.80177858679843,0.0,0,0.0,,,,,,
40.000000000000504,1.0193621504614268,242.10165200677005,284.44988199951615,91.7966959864599,0.0,0,0.0,,,,,,
41.0000000000005,1.0301386913263195,241.10419330693932,284.52112904950405,93.79161338612136,0.0,0,0.0,,,,,,
42.00000000000049,1.0406884306369146,240.1067346071086,284.59237609949196,95.78653078578282,0.0,0,0.0,,,,,,
42.10700654285457,1.0418047912490453,240.0,284.6,95.91952134702211,0.0,0,0.0,,,,,,
43.10700654285457,1.0522258259929975,239.0,284.6,96.0,0.0,0,0.0,,,,,,
44.10700654285457,1.0626424926596643,238.0,284.6,96.0,0.0,0,0.0,,,,,,
45.10700654285457,1.073059159326331,237.0,284.6,96.0,0.0,0,0.0,,,,,,
46.10700654285457,1.0834758259929977,236.0,284.6,96.0,0.0,0,0.0,,,,,,
47.10700654285457,1.0938924926596645,235.0,284.6,96.0,0.0,0,0.0,,,,,,
48.10700654285457,1.1043091593263312,234.0,284.6,96.0,0.0,0,0.0,,,,,,
49.10700654285457,1.114725825992998,233.0,284.6,96.0,0.0,0,0.0,,,,,,
50.10700654285457,1.1251424926596647,232.0,284.6,96.0,0.0,0,0.0,,,,,,
51.10700654285457,1.1355591593263314,231.0,284.6,96.0,0.0,0,0.0,,,,,,
52.10700654285457,1.1459758259929982,230.0,284.6,96.0,0.0,0,0.0,,,,,,
53.10700654285457,1.156392492659665,229.0,284.6,96.0,0.0,0,0.0,,,,,,
54.10700654285457,1.1668091593263317,228.0,284.6,96.0,0.0,0,0.0,,,,,,
55.10700654285457,1.1772258259929984,227.0,284.6,96.0,0.0,0,0.0,,,,,,
56.10700654285457,1.1876424926596651,226.0,284.6,96.0,0.0,0,0.0,,,,,,
57.10700654285457,1.198059159326332,225.0,284.6,96.0,0.0,0,0.0,,,,,,
58.10700654285457,1.2084758259929986,224.0,284.6,96.0,0.0,0,0.0,,,,,,
59.10700654285457,1.2188924926596654,223.0,284.6,96.0,0.0,0,0.0,,,,,,
60.10700654285457,1.2293091593263321,222.0,284.6,96.0,0.0,0,0.0,,,,,,
61.10700654285457,1.2397258259929989,221.0,284.6,96.0,0.0,0,0.0,,,,,,
62.10700654285457,1.2501424926596656,220.0,284.6,96.0,0.0,0,0.0,,,,,,
63.10700654285457,1.2605591593263323,219.0,284.6,96.0,0.0,0,0.0,,,,,,
64.10700654285458,1.270975825992999,218.0,284.6,96.0,0.0,0,0.0,,,,,,
65.10700654285458,1.2813924926596658,217.0,284.6,96.0,0.0,0,0.0,,,,,,
66.10700654285458,1.2918091593263326,216.0,284.6,96.0,0.0,0,0.0,,,,,,
67.10700654285458,1.3022258259929993,215.0,284.6,96.0,0.0,0,0.0,,,,,,
68.10700654285458,1.312642492659666,214.0,284.6,96.0,0.0,0,0.0,,,,,,
69.10700654285458,1.3230591593263328,213.0,284.6,96.0,0.0,0,0.0,,,,,,
70.10700654285458,1.3334758259929995,212.0,284.6,96.0,0.0,0,0.0,,,,,,
71.10700654285458,1.3438924926596663,211.0,284.6,96.0,0.0,0,0.0,,,,,,
72.10700654285458,1.354309159326333,210.0,284.6,96.0,0.0,0,0.0,,,,,,
73.10700654285458,1.3647258259929997,209.0,284.6,96.0,0.0,0,0.0,,,,,,
74.10700654285458,1.3751424926596665,208.0,284.6,96.0,0.0,0,0.0,,,,,,
75.10700654285458,1.3855591593263332,207.0,284.6,96.0,0.0,0,0.0,,,,,,
76.10700654285458,1.395975825993,206.0,284.6,96.0,0.0,0,0.0,,,,,,
77.10700654285458,1.4063924926596667,205.0,284.6,96.0,0.0,0,0.0,,,,,,
78.10700654285458,1.4168091593263334,204.0,284.6,96.0,0.0,0,0.0,,,,,,
79.10700654285458,1.4272258259930002,203.0,284.6,96.0,0.0,0,0.0,,,,,,
80.10700654285458,1.437642492659667,202.0,284.6,96.0,0.0,0,-0.0,,,,,,
81.10700654285458,1.4480591593263337,201.0,284.6,96.0,0.0,0,-0.0,,,,,,
82.10700654285458,1.4584758259930004,200.0,284.6,96.0,0.0,0,-0.0,,,,,,
83.10700654285458,1.4688924926596671,199.0,284.6,96.0,0.0,0,-0.0,,,,,,
84.10700654285458,1.479309159326334,198.0,284.6,96.0,0.0,0,-0.0,,,,,,
85.10700654285458,1.4897258259930006,197.0,284.6,96.0,0.0,0,-0.0,,,,,,
86.10700654285458,1.5001424926596674,196.0,284.6,96.0,0.0,0,-0.0,,,,,,
87.10700654285458,1.5105591593263341,195.0,284.6,96.0,0.0,0,-0.0,,,,,,
88.10700654285458,1.5209758259930009,194.0,284.6,96.0,0.0,0,-0.0,,,,,,
89.10700654285458,1.5313924926596676,193.0,284.6,96.0,0.0,0,-0.0,,,,,,
90.10700654285458,1.5418091593263343,192.0,284.6,96.0,0.0,0,-0.0,,,,,,
91.10700654285458,1.552225825993001,191.0,284.6,96.0,0.0,0,-0.0,,,,,,
92.10700654285458,1.5626424926596678,190.0,284.6,96.0,0.0,0,-0.0,,,,,,
93.10700654285458,1.5730591593263346,189.0,284.6,96.0,0.0,0,-0.0,,,,,,
94.10700654285458,1.5834758259930013,188.0,284.6,96.0,0.0,0,-0.0,,,,,,
95.10700654285458,1.593892492659668,187.0,284.6,96.0,0.0,0,-0.0,,,,,,
96.10700654285458,1.6043091593263348,186.0,284.6,96.0,0.0,0,-0.0,,,,,,
97.10700654285458,1.6147258259930015,185.0,284.6,96.0,0.0,0,-0.0,,,,,,
98.10700654285458,1.6251424926596683,184.0,284.6,96.0,0.0,0,-0.0,,,,,,
99.10700654285458,1.635559159326335,183.0,284.6,96.0,0.0,0,-0.0,,,,,,
100.10700654285458,1.6459758259930017,182.0,284.6,96.0,0.0,0,-0.0,,,,,,
101.10700654285458,1.6563924926596685,181.0,284.6,96.0,0.0,0,-0.0,,,,,,
102.10700654285458,1.6668091593263352,180.0,284.6,96.0,0.0,0,-0.0,,,,,,
103.10700654285458,1.677225825993002,179.0,284.6,96.0,0.0,0,-0.0,,,,,,
104.10700654285458,1.6876424926596687,178.0,284.6,96.0,0.0,0,-0.0,,,,,,
105.10700654285458,1.6980591593263354,177.0,284.6,96.0,0.0,0,-0.0,,,,,,
106.10700654285458,1.7084758259930022,176.0,284.6,96.0,0.0,0,-0.0,,,,,,
107.10700654285458,1.718892492659669,175.0,284.6,96.0,0.0,0,-0.0,,,,,,
108.10700654285458,1.7293091593263357,174.0,284.6,96.0,0.0,0,-0.0,,,,,,
109.10700654285458,1.7397258259930024,173.0,284.6,96.0,0.0,0,-0.0,,,,,,
110.10700654285458,1.7501424926596691,172.0,284.6,96.0,0.0,0,-0.0,,,,,,
111.10700654285458,1.7605591593263359,171.0,284.6,96.0,0.0,0,-0.0,,,,,,
112.10700654285458,1.7709758259930026,170.0,284.6,96.0,0.0,0,-0.0,,,,,,
113.10700654285458,1.7813924926596694,169.0,284.6,96.0,0.0,0,0.0,,,,,,
114.10700654285458,1.791809159326336,168.0,284.6,96.0,0.0,0,0.0,,,,,,
115.10700654285458,1.8022258259930029,167.0,284.6,96.0,0.0,0,0.0,,,,,,
116.10700654285458,1.8126424926596696,166.0,284.6,96.0,0.0,0,0.0,,,,,,
117.10700654285458,1.8230591593263363,165.0,284.6,96.0,0.0,0,0.0,,,,,,
118.10700654285458,1.833475825993003,164.0,284.6,96.0,0.0,0,0.0,,,,,,
119.10700654285458,1.8438924926596698,163.0,284.6,96.0,0.0,0,0.0,,,,,,
120.10700654285458,1.8543091593263366,162.0,284.6,96.0,0.0,0,0.0,,,,,,
121.10700654285458,1.8647258259930033,161.0,284.6,96.0,0.0,0,0.0,,,,,,
122.10700654285458,1.87514249265967,160.0,284.6,96.0,0.0,0,0.0,,,,,,
123.10700654285458,1.8855591593263368,159.0,284.6,96.0,0.0,0,0.0,,,,,,
124.10700654285458,1.8959758259930035,158.0,284.6,96.0,0.0,0,0.0,,,,,,
125.10700654285458,1.9063924926596703,157.0,284.6,96.0,0.0,0,0.0,,,,,,
126.10700654285458,1.916809159326337,156.0,284.6,96.0,0.0,0,0.0,,,,,,
127.10700654285458,1.9272258259930037,155.0,284.6,96.0,0.0,0,0.0,,,,,,
128.10700654285458,1.9376424926596705,154.0,284.6,96.0,0.0,0,0.0,,,,,,
129.10700654285458,1.9480591593263372,153.0,284.6,96.0,0.0,0,0.0,,,,,,
130.10700654285458,1.958475825993004,152.0,284.6,96.0,0.0,0,0.0,,,,,,
131.10700654285458,1.9688924926596707,151.0,284.6,96.0,0.0,0,0.0,,,,,,
132.10700654285458,1.9793091593263374,150.0,284.6,96.0,0.0,0,0.0,,,,,,
133.10700654285458,1.9897258259930042,149.0,284.6,96.0,0.0,0,0.0,,,,,,
134.10700654285458,2.0001424926596707,148.0,284.6,96.0,0.0,0,0.0,,,,,,
135.10700654285458,2.010559159326337,147.0,284.6,96.0,0.0,0,0.0,,,,,,
136.10700654285458,2.0209758259930037,146.0,284.6,96.0,0.0,0,0.0,,,,,,
137.10700654285458,2.0313924926596703,145.0,284.6,96.0,0.0,0,0.0,,,,,,
138.10700654285458,2.0418091593263368,144.0,284.6,96.0,0.0,0,0.0,,,,,,
139.10700654285458,2.0522258259930033,143.0,284.6,96.0,0.0,0,0.0,,,,,,
140.10700654285458,2.06264249265967,142.0,284.6,96.0,0.0,0,0.0,,,,,,
141.10700654285458,2.0730591593263363,141.0,284.6,96.0,0.0,0,0.0,,,,,,
142.10700654285458,2.083475825993003,140.0,284.6,96.0,0.0,0,0.0,,,,,,
143.10700654285458,2.0938924926596694,139.0,284.6,96.0,0.0,0,0.0,,,,,,
144.10700654285458,2.104309159326336,138.0,284.6,96.0,0.0,0,0.0,,,,,,
145.10700654285458,2.1147258259930024,137.0,284.6,96.0,0.0,0,0.0,,,,,,
146.10700654285458,2.125142492659669,136.0,284.6,96.0,0.0,0,0.0,,,,,,
147.10700654285458,2.1355591593263354,135.0,284.6,96.0,0.0,0,0.0,,,,,,
148.10700654285458,2.145975825993002,134.0,284.6,96.0,0.0,0,0.0,,,,,,
149.10700654285458,2.1563924926596685,133.0,284.6,96.0,0.0,0,0.0,,,,,,
150.10700654285458,2.166809159326335,132.0,284.6,96.0,0.0,0,0.0,,,,,,
151.10700654285458,2.1772258259930015,131.0,284.6,96.0,0.0,0,0.0,,,,,,
152.10700654285458,2.187729570895814,130.0,284.6,94.40827995207967,0.0,0,0.0,,,,,,
153.10700654285458,2.198411914123004,129.01464949414455,284.4294585662943,92.81655990415933,0.0,0,0.0,,,,,,
154.10700654285458,2.2092790342525173,128.0292989882891,284.2589171325885,91.224839856239,0.0,0,0.0,,,,,,
155.10700654285458,2.2203374361260617,127.04394848243365,284.08837569888277,89.63311980831867,0.0,0,0.0,,,,,,
156.10700654285458,2.231593974232115,126.0585979765782,283.917834265177,88.04139976039833,0.0,0,0.0,,,,,,
157.10700654285458,2.243055878221946,125.07324747072275,283.74729283147127,86.449679712478,0.0,0,0.0,,,,,,
158.10700654285458,2.254730780796478,124.0878969648673,283.5767513977655,84.85795966455767,0.0,0,0.0,,,,,,
159.10700654285458,2.2666267482333544,123.10254645901185,283.40620996405977,83.26623961663734,0.0,0,0.0,,,,,,
160.10700654285458,2.278752313859935,122.1171959531564,283.235668530354,81.674519568717,0.0,0,0.0,,,,,,
161.10700654285458,2.2911165148200983,121.13184544730095,283.06512709664827,80.08279952079667,0.0,0,0.0,,,,,,
162.10700654285458,2.3037289325315915,120.1464949414455,282.8945856629425,78.49107947287634,0.0,0,0.0,,,,,,
163.10700654285458,2.316599737287571,119.16114443559005,282.72404422923677,76.899359424956,0.0,0,0.0,,,,,,
164.10700654285458,2.3297397375223947,118.1757939297346,282.553502795531,75.30763937703567,0.0,0,0.0,,,,,,
165.10700654285458,2.343160434339491,117.19044342387915,282.38296136182527,73.71591932911534,0.0,0,0.0,,,,,,
166.10700654285458,2.3568740819904783,116.2050929180237,282.2124199281195,72.124199281195,0.0,0,0.0,,,,,,
167.10700654285458,2.3708937551023626,115.21974241216824,282.04187849441377,70.53247923327467,0.0,0,0.0,,,,,,
168.10700654285458,2.385233423576948,114.2343919063128,281.871337060708,68.94075918535434,0.0,0,0.0,,,,,,
169.10700654285458,2.399908036237708,113.24904140045734,281.70079562700226,67.349039137434,0.0,0,0.0,,,,,,
170.10700654285458,2.414933614479357,112.2636908946019,281.5302541932965,65.75731908951367,0.0,0,0.0,,,,,,
171.10700654285458,2.430327357390687,111.27834038874644,281.35971275959076,64.16559904159334,0.0,0,0.0,,,,,,
172.10700654285458,2.4461077600797645,110.29298988289099,281.189171325885,62.573878993673,0.0,0,0.0,,,,,,
173.10700654285458,2.462294747242468,109.30763937703554,281.01862989217926,60.98215894575266,0.0,0,0.0,,,,,,
174.10700654285458,2.4789098243931567,108.32228887118009,280.8480884584735,59.39043889783232,0.0,0,0.0,,,,,,
175.10700654285458,2.4959762496362248,107.33693836532464,280.67754702476776,57.79871884991198,0.0,0,0.0,,,,,,
176.10700654285458,2.5135192294199813,106.35158785946919,280.507005591062,56.20699880199164,0.0,0,0.0,,,,,,
177.10700654285458,2.5315661424063007,105.36623735361374,280.33646415735626,54.6152787540713,0.0,0,0.0,,,,,,
178.10700654285458,2.5501467964452216,104.38088684775829,280.1659227236505,53.02355870615096,0.0,0,0.0,,,,,,
179.10700654285458,2.56929372470804,103.39553634190284,279.99538128994476,51.43183865823062,0.0,0,0.0,,,,,,
180.10700654285458,2.589042528364482,102.41018583604739,279.824839856239,49.84011861031028,0.0,0,0.0,,,,,,
181.10700654285458,2.6094322748674155,101.42483533019194,279.65429842253326,48.24839856238994,0.0,0,0.0,,,,,,
182.10700654285458,2.6305059630367036,100.43948482433649,279.4837569888275,46.6566785144696,0.0,0,0.0,,,,,,
183.10700654285458,2.652311068852836,99.45413431848104,279.31321555512176,45.06495846654926,0.0,0,-0.0,,,,,,
184.10700654285458,2.674900189372127,98.46878381262559,279.142674121416,43.47323841862892,0.0,0,-0.0,,,,,,
185.10700654285458,2.6983318067210718,97.48343330677014,278.97213268771026,41.88151837070858,0.0,0,-0.0,,,,,,
186.10700654285458,2.7226712000821407,96.49808280091469,278.8015912540045,40.289798322788236,0.0,0,-0.0,,,,,,
187.10700654285458,2.7479915414579126,95.51273229505924,278.63104982029876,38.698078274867896,0.0,0,-0.0,,,,,,
188.10700654285458,2.7743752215206503,94.52738178920379,278.460508386593,37.106358226947556,0.0,0,-0.0,,,,,,
189.10700654285458,2.801915466063969,93.54203128334834,278.28996695288726,35.514638179027216,0.0,0,-0.0,,,,,,
190.10700654285458,2.8307183229944064,92.55668077749289,278.1194255191815,33.922918131106876,0.0,0,-0.0,,,,,,
191.10700654285458,2.860905126687194,91.57133027163744,277.94888408547575,32.331198083186536,0.0,0,-0.0,,,,,,
192.10700654285458,2.8926155842735977,90.58597976578199,277.77834265177,30.739478035266195,0.0,0,-0.0,,,,,,
193.10700654285458,2.9260116822208273,89.60062925992654,277.60780121806425,29.147757987345855,0.0,0,-0.0,,,,,,
194.10700654285458,2.9612826895195776,88.61527875407108,277.4372597843585,27.556037939425515,0.0,0,-0.0,,,,,,
195.10700654285458,2.998651648842605,87.62992824821563,277.26671835065275,25.964317891505175,0.0,0,-0.0,,,,,,
196.10700654285458,3.03838392029375,86.64457774236018,277.096176916947,24.372597843584835,0.0,0,-0.0,,,,,,
197.10700654285458,3.0807986091981507,85.65922723650473,276.92563548324125,22.780877795664495,0.0,0,0.0,,,,,,
198.10700654285458,3.1262841307648896,84.67387673064928,276.7550940495355,21.189157747744154,0.0,0,0.0,,,,,,
199.10700654285458,3.1753198489476206,83.68852622479383,276.58455261582975,19.597437699823814,0.0,0,0.0,,,,,,
200.10700654285458,3.2285068749110715,82.70317571893838,276.414011182124,18.005717651903474,0.0,0,0.0,,,,,,
201.10700654285458,3.2866131080722525,81.71782521308293,276.24346974841825,16.413997603983134,0.0,0,0.0,,,,,,
202.10700654285458,3.350641228895,80.73247470722748,276.0729283147125,14.822277556062794,0.0,0,0.0,,,,,,
203.10700654285458,3.421935270849139,79.74712420137203,275.90238688100675,13.230557508142454,0.0,0,0.0,,,,,,
204.10700654285458,3.5012042287132115,78.76177369551658,275.731845447301,12.0,0.0,0,0.0,,,,,,
204.8801057506895,3.5656291626994547,78.0,275.6,12.0,0.0,0,0.0,,,,,,
