Distance (in),Time (s),X (in),Y (in),Velocity (in/s),Orientation (deg),Touch,Rotational Velocity (deg/s),Way X (in),Way Y (in),Way Velocity (in/s),Way Orientation (deg),Way Turn Radius (in),Touch this Point
0.0,0.0,269.0,135.0,12.0,315.0,0,0.0,269.0,135.0,12.0,315.0,3.0,0
1.0000000000000175,0.078885128162955,268.3515335444002,135.7612432304867,13.353321298643065,315.7438756613734,0,11.443264876678025,246.0,162.0,60.0,0.0,3.0,0
2.000000000000035,0.15016105736292756,267.70306708880037,136.52248646097343,14.70664259728613,317.05117791447236,0,21.879826977277204,210.0,190.0,84.0,0.0,20.0,0
3.0000000000000524,0.2151666016188752,267.05460063320055,137.28372969146014,16.059963895929197,318.790955926316,0,31.472490014647438,150.0,190.0,120.0,0.0,3.0,0.0
4.00000000000007,0.2749158059638925,266.40613417760073,138.04497292194685,17.413285194572264,320.8660968495179,0,40.347519328224,110.0,190.0,96.0,0.0,3.0,0.0
5.000000000000088,0.33019513121060484,265.7576677220009,138.80621615243356,18.76660649321533,323.2032501201196,0,48.60481469266049,78.0,176.0,36.0,0.0,10.0,0.0
6.000000000000106,0.381626816671135,265.1092012664011,139.56745938292028,20.119927791858398,325.746139633047,0,56.32477318968314,74.0,154.0,12.0,0.0,3.0,0.0
7.0000000000001235,0.429711626486378,264.4607348108013,140.328702613407,21.473249090501465,328.39988691546387,0,62.37163549634354,,,,,,
8.00000000000014,0.47485853732015587,263.81226835520147,141.0899458438937,22.82657038914453,330.909150253776,0,62.37163549634354,,,,,,
9.000000000000158,0.517405878933034,263.16380189960165,141.85118907438041,24.179891687787595,333.2888502234571,0,62.37163549634354,,,,,,
10.000000000000176,0.557636719736611,262.51533544400183,142.61243230486713,25.533212986430662,335.55170965048643,0,62.37163549634354,,,,,,
11.000000000000194,0.5957902802572518,261.866868988402,143.37367553535384,26.88653428507373,337.70866503866984,0,62.37163549634354,,,,,,
12.000000000000211,0.6320705446598428,261.2184025328022,144.13491876584055,28.239855583716796,339.7691860253142,0,62.37163549634354,,,,,,
13.00000000000023,0.6666528571327912,260.5699360772024,144.89616199632727,29.593176882359863,341.74152648095946,0,62.37163549634354,,,,,,
14.000000000000247,0.6996890436981597,259.92146962160257,145.65740522681398,30.94649818100293,343.63292408471875,0,62.37163549634354,,,,,,
15.000000000000265,0.7313114380758233,259.27300316600275,146.4186484573007,32.299819479646,345.44976056214097,0,62.37163549634354,,,,,,
16.00000000000028,0.7616360814607183,258.62453671040294,147.1798916877874,33.653140778289064,347.1976915370961,0,62.37163549634354,,,,,,
17.0000000000003,0.7907652916051073,257.9760702548031,147.94113491827412,35.00646207693213,348.8018918422217,0,59.41387480550555,,,,,,
18.000000000000316,0.8187897447246285,257.3276037992033,148.70237814876083,36.3597833755752,350.2366228790902,0,55.0789878077785,,,,,,
19.000000000000334,0.8457901770374012,256.6791373436035,149.46362137924754,37.713104674218265,351.51727114196535,0,50.89691484399498,,,,,,
20.00000000000035,0.8718387863886764,256.03067088800367,150.22486460973425,39.06642597286133,352.65744983681793,0,46.85724874629546,,,,,,
21.00000000000035,0.8970003952366878,255.38220443240388,150.98610784022097,40.41974727150438,353.669249235148,0,42.95061048353362,,,,,,
22.00000000000035,0.9213334221505375,254.7337379768041,151.74735107070768,41.773068570147416,354.5634453604788,0,39.16851805096438,,,,,,
23.00000000000035,0.9448906984485772,254.0852715212043,152.5085943011944,43.126389868790454,355.349674948579,0,35.503275613587036,,,,,,
24.00000000000035,0.9677201586841495,253.43680506560452,153.2698375316811,44.47971116743349,356.03658292670525,0,31.94787926117245,,,,,,
25.00000000000035,0.9898654276631988,252.78833861000473,154.03108076216782,45.83303246607653,356.63194736046836,0,28.49593647481135,,,,,,
26.00000000000035,1.011366322057811,252.13987215440494,154.79232399265453,47.18635376471957,357.1427858171468,0,25.141596978833654,,,,,,
27.00000000000035,1.032259281104424,251.49140569880515,155.55356722314124,48.53967506336261,357.5754463173908,0,21.879493099690336,,,,,,
28.00000000000035,1.0525777380866304,250.84293924320536,156.31481045362796,49.89299636200565,357.9356854391455,0,18.70468810527231,,,,,,
29.00000000000035,1.0723524421107453,250.19447278760558,157.07605368411467,51.246317660648685,358.22873565831145,0,15.612631276653545,,,,,,
30.00000000000035,1.0916117379475556,249.5460063320058,157.83729691460138,52.599638959291724,358.4593636304064,0,12.599118686158036,,,,,,
31.00000000000035,1.1103818103314553,248.897539876406,158.5985401450881,53.95296025793476,358.63192081395096,0,9.660258833586,,,,,,
32.00000000000035,1.1286868979998774,248.2490734208062,159.3597833755748,55.3062815565778,358.7503875925791,0,6.79244243595749,,,,,,
33.00000000000035,1.146549481861978,247.60060696520642,160.12102660606152,56.65960285522084,358.8184118560995,0,3.992315782555167,,,,,,
34.00000000000035,1.1639904509603702,246.95214050960664,160.88226983654823,58.01292415386388,0.0,0,1.2567571619930078,,,,,,
35.00000000000035,1.181029249298329,246.30367405400685,161.64351306703495,59.36624545250692,0.0,0,0.0,,,,,,
35.468295701936405,1.1888571319406624,246.0,162.0,60.281869710460526,0.0,0,0.0,,,,,,
36.468295701936405,1.2051811351818802,245.21064778262368,162.61394061351493,62.23709640626017,0.0,0,0.0,,,,,,
37.468295701936405,1.2210002381072746,244.42129556524736,163.22788122702985,64.19232310205982,0.0,0,0.0,,,,,,
38.468295701936405,1.2363447367284732,243.63194334787104,163.84182184054478,66.14754979785947,0.0,0,0.0,,,,,,
39.468295701936405,1.251242279663729,242.84259113049472,164.4557624540597,68.10277649365912,0.0,0,0.0,,,,,,
40.468295701936405,1.26571816786143,242.0532389131184,165.06970306757464,70.05800318945877,0.0,0,0.0,,,,,,
41.468295701936405,1.279795613074763,241.2638866957421,165.68364368108956,72.01322988525843,0.0,0,0.0,,,,,,
42.468295701936405,1.2934959617172037,240.47453447836577,166.2975842946045,73.96845658105808,0.0,0,0.0,,,,,,
43.468295701936405,1.306838889517793,239.68518226098945,166.91152490811942,75.92368327685773,0.0,0,0.0,,,,,,
44.468295701936405,1.31984257143072,238.89583004361313,167.52546552163435,77.87890997265738,0.0,0,0.0,,,,,,
45.468295701936405,1.3325238304805889,238.1064778262368,168.13940613514927,79.83413666845703,0.0,0,0.0,,,,,,
46.468295701936405,1.3448982686012532,237.3171256088605,168.7533467486642,81.78936336425669,0.0,0,0.0,,,,,,
47.468295701936405,1.3569803820204465,236.52777339148417,169.36728736217913,83.74459006005634,0.0,0,0.0,,,,,,
48.468295701936405,1.3689032702595483,235.73842117410786,169.98122797569405,84.0,0.0,0,0.0,,,,,,
49.468295701936405,1.3808080321643101,234.94906895673154,170.59516858920898,84.0,0.0,0,-0.0,,,,,,
50.468295701936405,1.392712794069072,234.15971673935522,171.2091092027239,84.0,0.0,0,-0.0,,,,,,
51.468295701936405,1.4046175559738339,233.3703645219789,171.82304981623884,84.0,0.0,0,-0.0,,,,,,
52.468295701936405,1.4165223178785957,232.58101230460258,172.43699042975376,84.0,0.0,0,-0.0,,,,,,
53.468295701936405,1.4284270797833576,231.79166008722626,173.0509310432687,84.0,0.0,0,-0.0,,,,,,
54.468295701936405,1.4403318416881195,231.00230786984994,173.66487165678362,84.0,0.0,0,-0.0,,,,,,
55.468295701936405,1.4522366035928813,230.21295565247362,174.27881227029854,84.0,0.0,0,-0.0,,,,,,
56.468295701936405,1.4641413654976432,229.4236034350973,174.89275288381347,84.0,0.0,0,-0.0,,,,,,
57.468295701936405,1.476046127402405,228.634251217721,175.5066934973284,84.0,0.0,0,-0.0,,,,,,
58.468295701936405,1.487950889307167,227.84489900034467,176.12063411084333,84.0,0.0,0,-0.0,,,,,,
59.468295701936405,1.4998556512119288,227.05554678296835,176.73457472435825,84.0,0.0,0,-0.0,,,,,,
60.468295701936405,1.5117604131166906,226.26619456559203,177.34851533787318,84.0,0.0,0,-0.0,,,,,,
61.468295701936405,1.5236651750214525,225.4768423482157,177.9624559513881,84.0,0.0,0,-0.0,,,,,,
62.468295701936405,1.5355699369262144,224.6874901308394,178.57639656490304,84.0,0.0,0,-0.0,,,,,,
63.468295701936405,1.5474746988309762,223.89813791346307,179.19033717841796,84.0,0.0,0,-0.0,,,,,,
64.4682957019364,1.559379460735738,223.10878569608676,179.8042777919329,84.0,0.0,0,0.0,,,,,,
65.4682957019364,1.5712842226405,222.31943347871044,180.41821840544782,84.0,0.0,0,0.0,,,,,,
66.4682957019364,1.5831889845452618,221.53008126133412,181.03215901896274,84.0,0.0,0,0.0,,,,,,
67.4682957019364,1.5950937464500237,220.7407290439578,181.64609963247767,84.0,0.0,0,0.0,,,,,,
68.4682957019364,1.6069985083547855,219.95137682658148,182.2600402459926,84.0,0.0,0,0.0,,,,,,
69.4682957019364,1.6189032702595474,219.16202460920516,182.87398085950753,84.0,0.0,0,0.0,,,,,,
70.4682957019364,1.6308080321643093,218.37267239182884,183.48792147302245,84.0,0.0,0,0.0,,,,,,
71.4682957019364,1.6427127940690711,217.58332017445252,184.10186208653738,84.0,0.0,0,0.0,,,,,,
72.4682957019364,1.654617555973833,216.7939679570762,184.7158027000523,84.0,0.0,0,0.0,,,,,,
73.4682957019364,1.6665223178785948,216.0046157396999,185.32974331356723,84.0,0.0,0,0.0,,,,,,
74.46827626797713,1.6784268484266989,215.21428091178896,185.94238675983118,84.0,0.0,0,0.0,,,,,,
75.46817210456562,1.6903303702908477,214.4024012650906,186.52603316246203,84.0,0.0,0,0.0,,,,,,
76.46806794115413,1.7022338921549967,213.56236609418988,187.0683730887784,84.0,0.0,0,0.0,,,,,,
77.46796377774263,1.7141374140191454,212.6962750495323,187.56805097140972,84.0,0.0,0,0.0,,,,,,
78.46785961433112,1.7260409358832942,211.8062929076779,188.02381787587657,84.0,0.0,0,0.0,,,,,,
79.4677554509196,1.7379444577474428,210.89464416048767,188.43453462227663,84.0,0.0,0,0.0,,,,,,
80.4676512875081,1.7498479796115918,209.96360745505203,188.79917463264104,84.0,0.0,0,0.0,,,,,,
81.46754712409661,1.761708530048122,209.01550989826004,189.11682649684474,84.60867325497138,0.0,0,0.0,,,,,,
82.46744296068509,1.7734840617124994,208.05272124024404,189.38669625065708,85.21734650994274,0.0,0,0.0,,,,,,
83.46733879727358,1.7851757847926184,207.07764795123842,189.60810936023904,85.82601976491412,0.0,0,0.0,,,,,,
84.46723463386209,1.796784883819599,206.09272720665732,189.78051240812636,86.4346930198855,0.0,0,0.0,,,,,,
85.46713047045058,1.8083125183879527,205.1004207954254,189.90347447648506,87.04336627485688,0.0,0,0.0,,,,,,
86.46713047045058,1.8197610122098735,204.1004207954254,189.90347447648506,87.65210293791579,0.0,0,0.0,,,,,,
87.46713047045058,1.8311302723173715,203.1004207954254,189.90347447648506,88.26083960097469,0.0,0,0.0,,,,,,
88.46713047045058,1.842421387907165,202.1004207954254,189.90347447648506,88.8695762640336,0.0,0,0.0,,,,,,
89.46713047045058,1.8536354258701078,201.1004207954254,189.90347447648506,89.4783129270925,0.0,0,0.0,,,,,,
90.46713047045058,1.8647734313961342,200.1004207954254,189.90347447648506,90.08704959015141,0.0,0,0.0,,,,,,
91.46713047045058,1.8758364285588343,199.1004207954254,189.90347447648506,90.69578625321031,0.0,0,0.0,,,,,,
92.46713047045058,1.886825420880477,198.1004207954254,189.90347447648506,91.30452291626922,0.0,0,0.0,,,,,,
93.46713047045058,1.8977413918782595,197.1004207954254,189.90347447648506,91.91325957932813,0.0,0,0.0,,,,,,
94.46713047045058,1.9085853055925295,196.1004207954254,189.90347447648506,92.52199624238703,0.0,0,0.0,,,,,,
95.46713047045058,1.919358107097685,195.1004207954254,189.90347447648506,93.13073290544594,0.0,0,0.0,,,,,,
96.46713047045058,1.9300607229964333,194.1004207954254,189.90347447648506,93.73946956850484,0.0,0,0.0,,,,,,
97.46713047045058,1.9406940618980524,193.1004207954254,189.90347447648506,94.34820623156375,0.0,0,0.0,,,,,,
98.46713047045058,1.9512590148812745,192.1004207954254,189.90347447648506,94.95694289462266,0.0,0,0.0,,,,,,
99.46713047045058,1.9617564559423784,191.1004207954254,189.90347447648506,95.56567955768156,0.0,0,-0.0,,,,,,
100.46713047045058,1.9721872424290567,190.1004207954254,189.90347447648506,96.17441622074047,0.0,0,-0.0,,,,,,
101.46713047045058,1.9825522154605963,189.1004207954254,189.90347447648506,96.78315288379937,0.0,0,-0.0,,,,,,
102.46713047045058,1.9928522003348843,188.1004207954254,189.90347447648506,97.39188954685828,0.0,0,-0.0,,,,,,
103.46713047045058,2.0030880069227353,187.1004207954254,189.90347447648506,98.00062620991719,0.0,0,-0.0,,,,,,
104.46713047045058,2.0132604300500097,186.1004207954254,189.90347447648506,98.60936287297609,0.0,0,-0.0,,,,,,
105.46713047045058,2.023370249867973,185.1004207954254,189.90347447648506,99.218099536035,0.0,0,-0.0,,,,,,
106.46713047045058,2.0334182322123286,184.1004207954254,189.90347447648506,99.8268361990939,0.0,0,-0.0,,,,,,
107.46713047045058,2.0434051289513384,183.1004207954254,189.90347447648506,100.43557286215281,0.0,0,-0.0,,,,,,
108.46713047045058,2.0533316783234232,182.1004207954254,189.90347447648506,101.04430952521172,0.0,0,-0.0,,,,,,
109.46713047045058,2.0631986052646263,181.1004207954254,189.90347447648506,101.65304618827062,0.0,0,-0.0,,,,,,
110.46713047045058,2.073006621726301,180.1004207954254,189.90347447648506,102.26178285132953,0.0,0,-0.0,,,,,,
111.46713047045058,2.0827564269833703,179.1004207954254,189.90347447648506,102.87051951438843,0.0,0,-0.0,,,,,,
112.46713047045058,2.092448707933493,178.1004207954254,189.90347447648506,103.47925617744734,0.0,0,-0.0,,,,,,
113.46713047045058,2.102084139387455,177.1004207954254,189.90347447648506,104.08799284050625,0.0,0,-0.0,,,,,,
114.46713047045058,2.1116633843510977,176.1004207954254,189.90347447648506,104.69672950356515,0.0,0,-0.0,,,,,,
115.46713047045058,2.121187094299069,175.1004207954254,189.90347447648506,105.30546616662406,0.0,0,-0.0,,,,,,
116.46713047045058,2.130655909440688,174.1004207954254,189.90347447648506,105.91420282968296,0.0,0,-0.0,,,,,,
117.46713047045058,2.1400704589781907,173.1004207954254,189.90347447648506,106.52293949274187,0.0,0,0.0,,,,,,
118.46713047045058,2.1494313613576175,172.1004207954254,189.90347447648506,107.13167615580078,0.0,0,0.0,,,,,,
119.46713047045058,2.1587392245125936,171.1004207954254,189.90347447648506,107.74041281885968,0.0,0,0.0,,,,,,
120.46713047045058,2.167994646101241,170.1004207954254,189.90347447648506,108.34914948191859,0.0,0,0.0,,,,,,
121.46713047045058,2.177198213736455,169.1004207954254,189.90347447648506,108.9578861449775,0.0,0,0.0,,,,,,
122.46713047045058,2.186350505209765,168.1004207954254,189.90347447648506,109.5666228080364,0.0,0,0.0,,,,,,
123.46713047045058,2.195452088708996,167.1004207954254,189.90347447648506,110.1753594710953,0.0,0,0.0,,,,,,
124.46713047045058,2.204503523029929,166.1004207954254,189.90347447648506,110.78409613415421,0.0,0,0.0,,,,,,
125.46713047045058,2.2135053577821675,165.1004207954254,189.90347447648506,111.39283279721312,0.0,0,0.0,,,,,,
126.46713047045058,2.222458133589391,164.1004207954254,189.90347447648506,112.00156946027202,0.0,0,0.0,,,,,,
127.46713047045058,2.231362382284183,163.1004207954254,189.90347447648506,112.61030612333093,0.0,0,0.0,,,,,,
128.46713047045057,2.240218627097604,162.1004207954254,189.90347447648506,113.21904278638983,0.0,0,0.0,,,,,,
129.46713047045057,2.2490273828436878,161.1004207954254,189.90347447648506,113.82777944944874,0.0,0,0.0,,,,,,
130.46713047045057,2.2577891560990113,160.1004207954254,189.90347447648506,114.43651611250765,0.0,0,0.0,,,,,,
131.46713047045057,2.266504445377505,159.1004207954254,189.90347447648506,115.04525277556655,0.0,0,0.0,,,,,,
132.46713047045057,2.2751737413006494,158.1004207954254,189.90347447648506,115.65398943862546,0.0,0,0.0,,,,,,
133.46713047045057,2.2837975267632045,157.1004207954254,189.90347447648506,116.26272610168436,0.0,0,0.0,,,,,,
134.46713047045057,2.292376277094611,156.1004207954254,189.90347447648506,116.87146276474327,0.0,0,0.0,,,,,,
135.46713047045057,2.3009104602162,155.1004207954254,189.90347447648506,117.48019942780218,0.0,0,0.0,,,,,,
136.46713047045057,2.309400536794341,154.1004207954254,189.90347447648506,118.08893609086108,0.0,0,0.0,,,,,,
137.46713047045057,2.317846960389651,153.1004207954254,189.90347447648506,118.69767275391999,0.0,0,0.0,,,,,,
138.46713047045057,2.3262501776023874,152.1004207954254,189.90347447648506,119.3064094169789,0.0,0,0.0,,,,,,
139.46713047045057,2.334610628214142,151.1004207954254,189.90347447648506,119.9151460800378,0.0,0,0.0,,,,,,
140.46713047045057,2.342946908906203,150.1004207954254,189.90347447648506,120.0,0.0,0,0.0,,,,,,
140.60641978390893,2.344108057524007,150.0,190.0,119.91642641192499,0.0,0,0.0,,,,,,
141.60641978390893,2.352468113329021,149.0,190.0,119.316426411925,0.0,0,0.0,,,,,,
142.60641978390893,2.360870314858236,148.0,190.0,118.716426411925,0.0,0,0.0,,,,,,
143.60641978390893,2.3693150892050094,147.0,190.0,118.116426411925,0.0,0,0.0,,,,,,
144.60641978390893,2.3778028699878324,146.0,190.0,117.51642641192501,0.0,0,0.0,,,,,,
145.60641978390893,2.3863340974839327,145.0,190.0,116.91642641192502,0.0,0,0.0,,,,,,
146.60641978390893,2.394909218766313,144.0,190.0,116.31642641192502,0.0,0,0.0,,,,,,
147.60641978390893,2.403528687844333,143.0,190.0,115.71642641192503,0.0,0,0.0,,,,,,
148.60641978390893,2.412192965807948,142.0,190.0,115.11642641192503,0.0,0,0.0,,,,,,
149.60641978390893,2.4209025209757105,141.0,190.0,114.51642641192504,0.0,0,0.0,,,,,,
150.60641978390893,2.4296578290466657,140.0,190.0,113.91642641192504,0.0,0,0.0,,,,,,
151.60641978390893,2.4384593732562543,139.0,190.0,113.31642641192505,0.0,0,0.0,,,,,,
152.60641978390893,2.4473076445363526,138.0,190.0,112.71642641192506,0.0,0,0.0,,,,,,
153.60641978390893,2.456203141679588,137.0,190.0,112.11642641192506,0.0,0,0.0,,,,,,
154.60641978390893,2.4651463715080575,136.0,190.0,111.51642641192507,0.0,0,0.0,,,,,,
155.60641978390893,2.4741378490466017,135.0,190.0,110.91642641192507,0.0,0,-0.0,,,,,,
156.60641978390893,2.483178097700776,134.0,190.0,110.31642641192508,0.0,0,-0.0,,,,,,
157.60641978390893,2.4922676494396754,133.0,190.0,109.71642641192508,0.0,0,-0.0,,,,,,
158.60641978390893,2.501407044983771,132.0,190.0,109.11642641192509,0.0,0,-0.0,,,,,,
159.60641978390893,2.5105968339979268,131.0,190.0,108.5164264119251,0.0,0,-0.0,,,,,,
160.60641978390893,2.5198375752897664,130.0,190.0,107.9164264119251,0.0,0,-0.0,,,,,,
161.60641978390893,2.5291298370135693,129.0,190.0,107.31642641192511,0.0,0,-0.0,,,,,,
162.60641978390893,2.538474196879884,128.0,190.0,106.71642641192511,0.0,0,-0.0,,,,,,
163.60641978390893,2.5478712423710483,127.0,190.0,106.11642641192512,0.0,0,-0.0,,,,,,
164.60641978390893,2.5573215709628228,126.0,190.0,105.51642641192512,0.0,0,-0.0,,,,,,
165.60641978390893,2.5668257903523406,125.0,190.0,104.91642641192513,0.0,0,-0.0,,,,,,
166.60641978390893,2.576384518692597,124.0,190.0,104.31642641192514,0.0,0,-0.0,,,,,,
167.60641978390893,2.5859983848336987,123.0,190.0,103.71642641192514,0.0,0,0.0,,,,,,
168.60641978390893,2.5956680285711147,122.0,190.0,103.11642641192515,0.0,0,0.0,,,,,,
169.60641978390893,2.6053941009011683,121.0,190.0,102.51642641192515,0.0,0,0.0,,,,,,
170.60641978390893,2.615177264284029,120.0,190.0,101.91642641192516,0.0,0,0.0,,,,,,
171.60641978390893,2.625018192914468,119.0,190.0,101.31642641192516,0.0,0,0.0,,,,,,
172.60641978390893,2.634917573000655,118.0,190.0,100.71642641192517,0.0,0,0.0,,,,,,
173.60641978390893,2.644876103051285,117.0,190.0,100.11642641192518,0.0,0,0.0,,,,,,
174.60641978390893,2.6548944941713315,116.0,190.0,99.51642641192518,0.0,0,0.0,,,,,,
175.60641978390893,2.664973470366747,115.0,190.0,98.91642641192519,0.0,0,0.0,,,,,,
176.60641978390893,2.67511376885843,114.0,190.0,98.31642641192519,0.0,0,0.0,,,,,,
177.60641978390893,2.6853161404058006,113.0,190.0,97.7164264119252,0.0,0,0.0,,,,,,
178.60641978390893,2.695581349640345,112.0,190.0,97.1164264119252,0.0,0,0.0,,,,,,
179.60641978390893,2.70591017540949,111.0,190.0,96.51642641192521,0.0,0,0.0,,,,,,
180.60641978390893,2.716364756520967,110.0,190.0,94.78726894171633,0.0,0,0.0,,,,,,
181.60641978390893,2.7270118110058865,109.0838426650978,189.5991811659803,93.05811147150746,0.0,0,0.0,,,,,,
182.60641978390893,2.7378585588234277,108.16768533019561,189.1983623319606,91.32895400129858,0.0,0,0.0,,,,,,
