Distance (in),Time (s),X (in),Y (in),Velocity (in/s),Orientation (deg),Touch,Rotational Velocity (deg/s),Way X (in),Way Y (in),Way Velocity (in/s),Way Orientation (deg),Way Turn Radius (in),Touch this Point
0.0,0.0,282.0,38.0,12.0,0.0,0,0.0,282.0,38.0,12.0,0.0,3.0,0
1.000000000000023,0.07700367060057055,281.01360607616783,37.835601012694646,13.972787847664335,0.0,0,0.0,240.0,31.0,96.0,0.0,10.0,0.0
2.000000000000046,0.14385224663067409,280.02721215233566,37.67120202538929,15.945575695328671,0.0,0,0.0,130.0,31.0,96.0,0.0,10.0,0.0
3.0000000000000693,0.20291212108664916,279.0408182285035,37.50680303808394,17.918363542993006,0.0,0,0.0,78.0,40.0,12.0,0.0,3.0,0.0
4.000000000000092,0.2558088589450884,278.05442430467133,37.34240405077858,19.891151390657342,0.0,0,0.0,,,,,,
5.0000000000001155,0.30370721025682046,277.06803038083916,37.17800506347323,21.863939238321677,0.0,0,0.0,,,,,,
6.0000000000001386,0.3474702483229912,276.081636457007,37.013606076167875,23.836727085986013,0.0,0,0.0,,,,,,
7.000000000000162,0.38775527129026827,275.0952425331748,36.84920708886252,25.809514933650348,0.0,0,-0.0,,,,,,
8.000000000000185,0.42507440106185584,274.10884860934266,36.68480810155717,27.782302781314684,0.0,0,-0.0,,,,,,
9.000000000000208,0.45983440462576836,273.1224546855105,36.52040911425181,29.75509062897902,0.0,0,-0.0,,,,,,
10.000000000000231,0.4923637380183087,272.1360607616783,36.35601012694646,31.727878476643355,0.0,0,-0.0,,,,,,
11.000000000000254,0.5229314360480374,271.14966683784615,36.191611139641104,33.70066632430769,0.0,0,-0.0,,,,,,
12.000000000000277,0.5517606303598744,270.163272914014,36.02721215233575,35.673454171972026,0.0,0,-0.0,,,,,,
13.0000000000003,0.5790384302401875,269.1768789901818,35.862813165030396,37.64624201963636,0.0,0,-0.0,,,,,,
14.000000000000323,0.6049232805896002,268.19048506634965,35.69841417772504,39.619029867300696,0.0,0,-0.0,,,,,,
15.000000000000346,0.6295505324844172,267.2040911425175,35.53401519041969,41.59181771496503,0.0,0,-0.0,,,,,,
16.00000000000037,0.6530367232263699,266.2176972186853,35.36961620311433,43.56460556262937,0.0,0,-0.0,,,,,,
17.00000000000039,0.6754829087559203,265.23130329485315,35.20521721580898,45.537393410293696,0.0,0,-0.0,,,,,,
18.000000000000412,0.6969772895297424,264.244909371021,35.040818228503625,47.510181257958024,0.0,0,0.0,,,,,,
19.000000000000433,0.7175973023090264,263.2585154471888,34.87641924119827,49.48296910562235,0.0,0,0.0,,,,,,
20.000000000000455,0.7374113031201008,262.27212152335665,34.712020253892916,51.45575695328668,0.0,0,0.0,,,,,,
21.000000000000476,0.7564799336639394,261.2857275995245,34.54762126658756,53.42854480095101,0.0,0,0.0,,,,,,
22.000000000000497,0.7748572400330188,260.2993336756923,34.38322227928221,55.40133264861534,0.0,0,0.0,,,,,,
23.00000000000052,0.7925915957303568,259.31293975186014,34.218823291976854,57.374120496279666,0.0,0,0.0,,,,,,
24.00000000000054,0.8097264686823232,258.326545828028,34.0544243046715,59.346908343943994,0.0,0,0.0,,,,,,
25.00000000000056,0.8263010628519203,257.3401519041958,33.890025317366145,61.31969619160832,0.0,0,0.0,,,,,,
26.000000000000583,0.8423508582755654,256.35375798036364,33.72562633006079,63.29248403927265,0.0,0,0.0,,,,,,
27.00000000000058,0.8579080682283275,255.3673640565315,33.56122734275544,65.26527188693693,0.0,0,0.0,,,,,,
28.000000000000576,0.8730020283237044,254.38097013269936,33.39682835545008,67.23805973460121,0.0,0,0.0,,,,,,
29.000000000000572,0.8876595293570804,253.39457620886722,33.23242936814473,69.21084758226549,0.0,0,0.0,,,,,,
30.00000000000057,0.901905103378862,252.40818228503508,33.068030380839375,71.18363542992977,0.0,0,0.0,,,,,,
31.000000000000565,0.91576127066817,251.42178836120294,32.90363139353402,73.15642327759404,0.0,0,0.0,,,,,,
32.00000000000056,0.9292487538492213,250.4353944373708,32.739232406228666,75.12921112525832,0.0,0,0.0,,,,,,
33.000000000000554,0.9423866642600371,249.44900051353866,32.57483341892331,77.1019989729226,0.0,0,0.0,,,,,,
34.00000000000055,0.9551926647795017,248.46260658970652,32.41043443161796,79.07478682058688,0.0,0,0.0,,,,,,
35.00000000000054,0.9676831125933094,247.47621266587439,32.246035444312604,81.04757466825116,0.0,0,0.0,,,,,,
36.00000000000053,0.9798731847934309,246.48981874204225,32.08163645700725,83.02036251591544,0.0,0,0.0,,,,,,
37.000000000000526,0.9917769892298898,245.5034248182101,31.91723746970189,84.99315036357972,0.0,0,0.0,,,,,,
38.00000000000052,1.0034076626451522,244.51703089437797,31.752838482396534,86.965938211244,0.0,0,0.0,,,,,,
39.00000000000051,1.0147774578026496,243.53063697054583,31.588439495091176,88.93872605890827,0.0,0,0.0,,,,,,
40.000000000000504,1.0258978210581218,242.5442430467137,31.42404050778582,90.91151390657255,0.0,0,0.0,,,,,,
41.0000000000005,1.0367794616047756,241.55784912288155,31.25964152048046,92.88430175423683,0.0,0,0.0,,,,,,
42.00000000000049,1.0474324134421575,240.5714551990494,31.095242533175103,94.85708960190111,0.0,0,0.0,,,,,,
42.5793377120875,1.0535167086455646,240.0,31.0,95.57999233409876,0.0,0,0.0,,,,,,
43.5793377120875,1.0639562121429453,239.0,31.0,96.0,0.0,0,0.0,,,,,,
44.5793377120875,1.074372878809612,238.0,31.0,96.0,0.0,0,0.0,,,,,,
45.5793377120875,1.0847895454762788,237.0,31.0,96.0,0.0,0,0.0,,,,,,
46.5793377120875,1.0952062121429456,236.0,31.0,96.0,0.0,0,0.0,,,,,,
47.5793377120875,1.1056228788096123,235.0,31.0,96.0,0.0,0,0.0,,,,,,
48.5793377120875,1.116039545476279,234.0,31.0,96.0,0.0,0,0.0,,,,,,
49.5793377120875,1.1264562121429458,233.0,31.0,96.0,0.0,0,0.0,,,,,,
50.5793377120875,1.1368728788096125,232.0,31.0,96.0,0.0,0,0.0,,,,,,
51.5793377120875,1.1472895454762793,231.0,31.0,96.0,0.0,0,0.0,,,,,,
52.5793377120875,1.157706212142946,230.0,31.0,96.0,0.0,0,0.0,,,,,,
53.5793377120875,1.1681228788096127,229.0,31.0,96.0,0.0,0,0.0,,,,,,
54.5793377120875,1.1785395454762795,228.0,31.0,96.0,0.0,0,0.0,,,,,,
55.5793377120875,1.1889562121429462,227.0,31.0,96.0,0.0,0,0.0,,,,,,
56.5793377120875,1.199372878809613,226.0,31.0,96.0,0.0,0,0.0,,,,,,
57.5793377120875,1.2097895454762797,225.0,31.0,96.0,0.0,0,0.0,,,,,,
58.5793377120875,1.2202062121429464,224.0,31.0,96.0,0.0,0,0.0,,,,,,
59.5793377120875,1.2306228788096132,223.0,31.0,96.0,0.0,0,0.0,,,,,,
60.5793377120875,1.24103954547628,222.0,31.0,96.0,0.0,0,0.0,,,,,,
61.5793377120875,1.2514562121429467,221.0,31.0,96.0,0.0,0,0.0,,,,,,
62.5793377120875,1.2618728788096134,220.0,31.0,96.0,0.0,0,0.0,,,,,,
63.5793377120875,1.2722895454762801,219.0,31.0,96.0,0.0,0,0.0,,,,,,
64.5793377120875,1.2827062121429467,218.0,31.0,96.0,0.0,0,0.0,,,,,,
65.5793377120875,1.2931228788096134,217.0,31.0,96.0,0.0,0,0.0,,,,,,
66.5793377120875,1.3035395454762801,216.0,31.0,96.0,0.0,0,0.0,,,,,,
67.5793377120875,1.3139562121429469,215.0,31.0,96.0,0.0,0,0.0,,,,,,
68.5793377120875,1.3243728788096136,214.0,31.0,96.0,0.0,0,0.0,,,,,,
69.5793377120875,1.3347895454762804,213.0,31.0,96.0,0.0,0,0.0,,,,,,
70.5793377120875,1.345206212142947,212.0,31.0,96.0,0.0,0,0.0,,,,,,
71.5793377120875,1.3556228788096139,211.0,31.0,96.0,0.0,0,0.0,,,,,,
72.5793377120875,1.3660395454762806,210.0,31.0,96.0,0.0,0,0.0,,,,,,
73.5793377120875,1.3764562121429473,209.0,31.0,96.0,0.0,0,0.0,,,,,,
74.5793377120875,1.386872878809614,208.0,31.0,96.0,0.0,0,0.0,,,,,,
75.5793377120875,1.3972895454762808,207.0,31.0,96.0,0.0,0,0.0,,,,,,
76.5793377120875,1.4077062121429476,206.0,31.0,96.0,0.0,0,0.0,,,,,,
77.5793377120875,1.4181228788096143,205.0,31.0,96.0,0.0,0,0.0,,,,,,
78.5793377120875,1.428539545476281,204.0,31.0,96.0,0.0,0,0.0,,,,,,
79.5793377120875,1.4389562121429478,203.0,31.0,96.0,0.0,0,0.0,,,,,,
80.5793377120875,1.4493728788096145,202.0,31.0,96.0,0.0,0,-0.0,,,,,,
81.5793377120875,1.4597895454762813,201.0,31.0,96.0,0.0,0,-0.0,,,,,,
82.5793377120875,1.470206212142948,200.0,31.0,96.0,0.0,0,-0.0,,,,,,
83.5793377120875,1.4806228788096147,199.0,31.0,96.0,0.0,0,-0.0,,,,,,
84.5793377120875,1.4910395454762815,198.0,31.0,96.0,0.0,0,-0.0,,,,,,
85.5793377120875,1.5014562121429482,197.0,31.0,96.0,0.0,0,-0.0,,,,,,
86.5793377120875,1.511872878809615,196.0,31.0,96.0,0.0,0,-0.0,,,,,,
87.5793377120875,1.5222895454762817,195.0,31.0,96.0,0.0,0,-0.0,,,,,,
88.5793377120875,1.5327062121429484,194.0,31.0,96.0,0.0,0,-0.0,,,,,,
89.5793377120875,1.5431228788096152,193.0,31.0,96.0,0.0,0,-0.0,,,,,,
90.5793377120875,1.553539545476282,192.0,31.0,96.0,0.0,0,-0.0,,,,,,
91.5793377120875,1.5639562121429487,191.0,31.0,96.0,0.0,0,-0.0,,,,,,
92.5793377120875,1.5743728788096154,190.0,31.0,96.0,0.0,0,-0.0,,,,,,
93.5793377120875,1.5847895454762821,189.0,31.0,96.0,0.0,0,-0.0,,,,,,
94.5793377120875,1.5952062121429489,188.0,31.0,96.0,0.0,0,-0.0,,,,,,
95.5793377120875,1.6056228788096156,187.0,31.0,96.0,0.0,0,-0.0,,,,,,
96.5793377120875,1.6160395454762824,186.0,31.0,96.0,0.0,0,-0.0,,,,,,
97.5793377120875,1.626456212142949,185.0,31.0,96.0,0.0,0,-0.0,,,,,,
98.5793377120875,1.6368728788096158,184.0,31.0,96.0,0.0,0,-0.0,,,,,,
99.5793377120875,1.6472895454762826,183.0,31.0,96.0,0.0,0,-0.0,,,,,,
100.5793377120875,1.6577062121429493,182.0,31.0,96.0,0.0,0,-0.0,,,,,,
101.5793377120875,1.668122878809616,181.0,31.0,96.0,0.0,0,-0.0,,,,,,
102.5793377120875,1.6785395454762828,180.0,31.0,96.0,0.0,0,-0.0,,,,,,
103.5793377120875,1.6889562121429496,179.0,31.0,96.0,0.0,0,-0.0,,,,,,
104.5793377120875,1.6993728788096163,178.0,31.0,96.0,0.0,0,-0.0,,,,,,
105.5793377120875,1.709789545476283,177.0,31.0,96.0,0.0,0,-0.0,,,,,,
106.5793377120875,1.7202062121429498,176.0,31.0,96.0,0.0,0,-0.0,,,,,,
107.5793377120875,1.7306228788096165,175.0,31.0,96.0,0.0,0,-0.0,,,,,,
108.5793377120875,1.7410395454762833,174.0,31.0,96.0,0.0,0,-0.0,,,,,,
109.5793377120875,1.75145621214295,173.0,31.0,96.0,0.0,0,-0.0,,,,,,
110.5793377120875,1.7618728788096167,172.0,31.0,96.0,0.0,0,-0.0,,,,,,
111.5793377120875,1.7722895454762835,171.0,31.0,96.0,0.0,0,-0.0,,,,,,
112.5793377120875,1.7827062121429502,170.0,31.0,96.0,0.0,0,-0.0,,,,,,
113.5793377120875,1.793122878809617,169.0,31.0,96.0,0.0,0,0.0,,,,,,
114.5793377120875,1.8035395454762837,168.0,31.0,96.0,0.0,0,0.0,,,,,,
115.5793377120875,1.8139562121429504,167.0,31.0,96.0,0.0,0,0.0,,,,,,
116.5793377120875,1.8243728788096172,166.0,31.0,96.0,0.0,0,0.0,,,,,,
117.5793377120875,1.834789545476284,165.0,31.0,96.0,0.0,0,0.0,,,,,,
118.5793377120875,1.8452062121429507,164.0,31.0,96.0,0.0,0,0.0,,,,,,
119.5793377120875,1.8556228788096174,163.0,31.0,96.0,0.0,0,0.0,,,,,,
120.5793377120875,1.8660395454762841,162.0,31.0,96.0,0.0,0,0.0,,,,,,
121.5793377120875,1.8764562121429509,161.0,31.0,96.0,0.0,0,0.0,,,,,,
122.5793377120875,1.8868728788096176,160.0,31.0,96.0,0.0,0,0.0,,,,,,
123.5793377120875,1.8972895454762844,159.0,31.0,96.0,0.0,0,0.0,,,,,,
124.5793377120875,1.907706212142951,158.0,31.0,96.0,0.0,0,0.0,,,,,,
125.5793377120875,1.9181228788096178,157.0,31.0,96.0,0.0,0,0.0,,,,,,
126.5793377120875,1.9285395454762846,156.0,31.0,96.0,0.0,0,0.0,,,,,,
127.5793377120875,1.9389562121429513,155.0,31.0,96.0,0.0,0,0.0,,,,,,
128.5793377120875,1.949372878809618,154.0,31.0,96.0,0.0,0,0.0,,,,,,
129.5793377120875,1.9597895454762848,153.0,31.0,96.0,0.0,0,0.0,,,,,,
130.5793377120875,1.9702062121429516,152.0,31.0,96.0,0.0,0,0.0,,,,,,
131.5793377120875,1.9806228788096183,151.0,31.0,96.0,0.0,0,0.0,,,,,,
132.5793377120875,1.991039545476285,150.0,31.0,96.0,0.0,0,0.0,,,,,,
133.5793377120875,2.0014562121429518,149.0,31.0,96.0,0.0,0,0.0,,,,,,
134.5793377120875,2.0118728788096183,148.0,31.0,96.0,0.0,0,0.0,,,,,,
135.5793377120875,2.022289545476285,147.0,31.0,96.0,0.0,0,0.0,,,,,,
136.5793377120875,2.0327062121429513,146.0,31.0,96.0,0.0,0,0.0,,,,,,
137.5793377120875,2.043122878809618,145.0,31.0,96.0,0.0,0,0.0,,,,,,
138.5793377120875,2.0535395454762844,144.0,31.0,96.0,0.0,0,0.0,,,,,,
139.5793377120875,2.063956212142951,143.0,31.0,96.0,0.0,0,0.0,,,,,,
140.5793377120875,2.0743728788096174,142.0,31.0,96.0,0.0,0,0.0,,,,,,
141.5793377120875,2.084789545476284,141.0,31.0,96.0,0.0,0,0.0,,,,,,
142.5793377120875,2.0952062121429504,140.0,31.0,96.0,0.0,0,0.0,,,,,,
143.5793377120875,2.105622878809617,139.0,31.0,96.0,0.0,0,0.0,,,,,,
144.5793377120875,2.1160395454762835,138.0,31.0,96.0,0.0,0,0.0,,,,,,
145.5793377120875,2.12645621214295,137.0,31.0,96.0,0.0,0,0.0,,,,,,
146.5793377120875,2.1368728788096165,136.0,31.0,96.0,0.0,0,0.0,,,,,,
147.5793377120875,2.147289545476283,135.0,31.0,96.0,0.0,0,0.0,,,,,,
148.5793377120875,2.1577062121429496,134.0,31.0,96.0,0.0,0,0.0,,,,,,
149.5793377120875,2.168122878809616,133.0,31.0,96.0,0.0,0,0.0,,,,,,
150.5793377120875,2.1785395454762826,132.0,31.0,96.0,0.0,0,0.0,,,,,,
151.5793377120875,2.188956212142949,131.0,31.0,96.0,0.0,0,0.0,,,,,,
152.5793377120875,2.199459957045762,130.0,31.0,94.40827995207967,0.0,0,0.0,,,,,,
153.5793377120875,2.2101423002729517,129.01464949414455,31.17054143370575,92.81655990415933,0.0,0,0.0,,,,,,
154.5793377120875,2.221009420402465,128.0292989882891,31.3410828674115,91.224839856239,0.0,0,0.0,,,,,,
155.5793377120875,2.2320678222760093,127.04394848243365,31.51162430111725,89.63311980831867,0.0,0,0.0,,,,,,
156.5793377120875,2.2433243603820627,126.0585979765782,31.682165734823002,88.04139976039833,0.0,0,0.0,,,,,,
157.5793377120875,2.2547862643718934,125.07324747072275,31.852707168528752,86.449679712478,0.0,0,0.0,,,,,,
158.5793377120875,2.2664611669464256,124.0878969648673,32.0232486022345,84.85795966455767,0.0,0,0.0,,,,,,
159.5793377120875,2.278357134383302,123.10254645901185,32.19379003594025,83.26623961663734,0.0,0,0.0,,,,,,
160.5793377120875,2.2904827000098824,122.1171959531564,32.364331469646004,81.674519568717,0.0,0,0.0,,,,,,
161.5793377120875,2.302846900970046,121.13184544730095,32.534872903351754,80.08279952079667,0.0,0,0.0,,,,,,
162.5793377120875,2.315459318681539,120.1464949414455,32.705414337057505,78.49107947287634,0.0,0,0.0,,,,,,
163.5793377120875,2.3283301234375187,119.16114443559005,32.875955770763255,76.899359424956,0.0,0,0.0,,,,,,
164.5793377120875,2.3414701236723423,118.1757939297346,33.046497204469006,75.30763937703567,0.0,0,0.0,,,,,,
165.5793377120875,2.3548908204894388,117.19044342387915,33.217038638174756,73.71591932911534,0.0,0,0.0,,,,,,
166.5793377120875,2.368604468140426,116.2050929180237,33.38758007188051,72.124199281195,0.0,0,0.0,,,,,,
167.5793377120875,2.38262414125231,115.21974241216824,33.55812150558626,70.53247923327467,0.0,0,0.0,,,,,,
168.5793377120875,2.3969638097268957,114.2343919063128,33.72866293929201,68.94075918535434,0.0,0,0.0,,,,,,
169.5793377120875,2.4116384223876555,113.24904140045734,33.89920437299776,67.349039137434,0.0,0,0.0,,,,,,
170.5793377120875,2.4266640006293048,112.2636908946019,34.06974580670351,65.75731908951367,0.0,0,0.0,,,,,,
171.5793377120875,2.4420577435406345,111.27834038874644,34.24028724040926,64.16559904159334,0.0,0,0.0,,,,,,
172.5793377120875,2.457838146229712,110.29298988289099,34.41082867411501,62.573878993673,0.0,0,0.0,,,,,,
173.5793377120875,2.4740251333924155,109.30763937703554,34.58137010782076,60.98215894575266,0.0,0,0.0,,,,,,
174.5793377120875,2.4906402105431042,108.32228887118009,34.75191154152651,59.39043889783232,0.0,0,0.0,,,,,,
175.5793377120875,2.5077066357861724,107.33693836532464,34.92245297523226,57.79871884991198,0.0,0,0.0,,,,,,
176.5793377120875,2.525249615569929,106.35158785946919,35.09299440893801,56.20699880199164,0.0,0,0.0,,,,,,
177.5793377120875,2.5432965285562483,105.36623735361374,35.26353584264376,54.6152787540713,0.0,0,0.0,,,,,,
178.5793377120875,2.561877182595169,104.38088684775829,35.43407727634951,53.02355870615096,0.0,0,0.0,,,,,,
179.5793377120875,2.5810241108579874,103.39553634190284,35.60461871005526,51.43183865823062,0.0,0,0.0,,,,,,
180.5793377120875,2.6007729145144296,102.41018583604739,35.77516014376101,49.84011861031028,0.0,0,0.0,,,,,,
181.5793377120875,2.621162661017363,101.42483533019194,35.945701577466764,48.24839856238994,0.0,0,0.0,,,,,,
182.5793377120875,2.642236349186651,100.43948482433649,36.116243011172514,46.6566785144696,0.0,0,0.0,,,,,,
183.5793377120875,2.6640414550027836,99.45413431848104,36.286784444878265,45.06495846654926,0.0,0,-0.0,,,,,,
184.5793377120875,2.6866305755220745,98.46878381262559,36.457325878584015,43.47323841862892,0.0,0,-0.0,,,,,,
185.5793377120875,2.7100621928710193,97.48343330677014,36.627867312289766,41.88151837070858,0.0,0,-0.0,,,,,,
186.5793377120875,2.7344015862320883,96.49808280091469,36.798408745995516,40.289798322788236,0.0,0,-0.0,,,,,,
187.5793377120875,2.75972192760786,95.51273229505924,36.96895017970127,38.698078274867896,0.0,0,-0.0,,,,,,
188.5793377120875,2.786105607670598,94.52738178920379,37.13949161340702,37.106358226947556,0.0,0,-0.0,,,,,,
189.5793377120875,2.8136458522139165,93.54203128334834,37.31003304711277,35.514638179027216,0.0,0,-0.0,,,,,,
190.5793377120875,2.842448709144354,92.55668077749289,37.48057448081852,33.922918131106876,0.0,0,-0.0,,,,,,
191.5793377120875,2.8726355128371415,91.57133027163744,37.65111591452427,32.331198083186536,0.0,0,-0.0,,,,,,
192.5793377120875,2.9043459704235453,90.58597976578199,37.82165734823002,30.739478035266195,0.0,0,-0.0,,,,,,
193.5793377120875,2.937742068370775,89.60062925992654,37.99219878193577,29.147757987345855,0.0,0,-0.0,,,,,,
194.5793377120875,2.973013075669525,88.61527875407108,38.16274021564152,27.556037939425515,0.0,0,-0.0,,,,,,
195.5793377120875,3.0103820349925527,87.62992824821563,38.33328164934727,25.964317891505175,0.0,0,-0.0,,,,,,
196.5793377120875,3.0501143064436977,86.64457774236018,38.50382308305302,24.372597843584835,0.0,0,-0.0,,,,,,
197.5793377120875,3.0925289953480983,85.65922723650473,38.67436451675877,22.780877795664495,0.0,0,0.0,,,,,,
198.5793377120875,3.1380145169148372,84.67387673064928,38.84490595046452,21.189157747744154,0.0,0,0.0,,,,,,
199.5793377120875,3.1870502350975682,83.68852622479383,39.01544738417027,19.597437699823814,0.0,0,0.0,,,,,,
200.5793377120875,3.240237261061019,82.70317571893838,39.18598881787602,18.005717651903474,0.0,0,0.0,,,,,,
201.5793377120875,3.2983434942222,81.71782521308293,39.35653025158177,16.413997603983134,0.0,0,0.0,,,,,,
202.5793377120875,3.3623716150449474,80.73247470722748,39.527071685287524,14.822277556062794,0.0,0,0.0,,,,,,
203.5793377120875,3.4336656569990867,79.74712420137203,39.697613118993274,13.230557508142454,0.0,0,0.0,,,,,,
204.5793377120875,3.512934614863159,78.76177369551658,39.868154552699025,12.0,0.0,0,0.0,,,,,,
205.3524369199224,3.5773595488494023,78.0,40.0,12.0,0.0,0,0.0,,,,,,
