Distance (in),Time (s),X (in),Y (in),Velocity (in/s),Orientation (deg),Touch,Rotational Velocity (deg/s),Way X (in),Way Y (in),Way Velocity (in/s),Way Orientation (deg),Way Turn Radius (in),Touch this Point
0.0,0.0,74.0,274.6,12.0,0.0,0,0.0,74.0,274.6,12.0,0.0,3.0,0
0.9999999999999981,0.07737906785139634,74.29408584883753,275.55577900872197,13.846783316657717,0.0,0,0.0,78.0,287.6,36.0,0.0,10.0,0
1.9999999999999962,0.14508307282720112,74.58817169767505,276.5115580174439,15.693566633315434,0.0,0,0.0,200.0,287.6,96.0,0.0,3.0,0
2.9999999999999942,0.20526255829313264,74.88225754651258,277.46733702616586,17.54034994997315,0.0,0,-0.0,248.0,287.6,0.0,0.0,3.0,0
3.9999999999999925,0.2594227616373107,75.1763433953501,278.4231160348878,19.38713326663087,0.0,0,-0.0,,,,,,
4.99999999999999,0.3086583182610143,75.47042924418763,279.37889504360976,21.233916583288586,0.0,0,-0.0,,,,,,
5.9999999999999885,0.3537901541814862,75.76451509302515,280.3346740523317,23.080699899946303,0.0,0,-0.0,,,,,,
6.998068676865307,0.39537234989948233,76.08715440599049,281.2791553689648,24.92391648125982,0.0,0,0.0,,,,,,
7.997652062278911,0.4340455555399654,76.5009112863232,282.18908514008575,26.76993040104991,0.0,0,0.0,,,,,,
8.997235447692463,0.47014080150052046,77.00344250362637,283.0531622894368,28.6159443208399,0.0,0,0.0,,,,,,
9.99681883310604,0.5039803029748161,77.58972693209142,283.8627532437676,30.46195824062994,0.0,0,0.0,,,,,,
10.996402218519615,0.5358294185952105,78.25390661150902,284.60976883787765,32.30797216041997,0.0,0,0.0,,,,,,
11.995985603933182,0.565909284186727,78.98934527807101,285.28674513888114,34.15398608020999,0.0,0,0.0,,,,,,
12.99556898934674,0.5946894986583117,79.78869467172481,285.88691802335705,35.309247864795566,0.0,0,0.0,,,,,,
13.995152374760313,0.6225432273756952,80.64396795755883,286.4042907622345,36.46450964938116,0.0,0,0.0,,,,,,
14.99473576017387,0.6495282603893513,81.54661952761677,286.8336939381272,37.61977143396673,0.0,0,0.0,,,,,,
15.994319145587442,0.6756971442541682,82.48763038578753,287.1708370964437,38.77503321855232,0.0,0,0.0,,,,,,
16.993902531000998,0.7010977977549837,83.45759826263311,287.4123516141905,39.93029500313789,0.0,0,0.0,,,,,,
17.993902531000998,0.7257841778807267,84.45759826263311,287.4123516141905,41.086038287233805,0.0,0,0.0,,,,,,
18.993902531000998,0.7497857658665242,85.45759826263311,287.4123516141905,42.24178157132972,0.0,0,0.0,,,,,,
19.993902531000998,0.7731395280984794,86.45759826263311,287.4123516141905,43.39752485542563,0.0,0,0.0,,,,,,
20.993902531000998,0.7958795163566285,87.45759826263311,287.4123516141905,44.55326813952154,0.0,0,0.0,,,,,,
21.993902531000998,0.818037166370342,88.45759826263311,287.4123516141905,45.709011423617454,0.0,0,0.0,,,,,,
22.993902531000998,0.8396415591003804,89.45759826263311,287.4123516141905,46.86475470771337,0.0,0,0.0,,,,,,
23.993902531000998,0.8607196501956689,90.45759826263311,287.4123516141905,48.02049799180928,0.0,0,0.0,,,,,,
24.993902531000998,0.881296472165913,91.45759826263311,287.4123516141905,49.17624127590519,0.0,0,0.0,,,,,,
25.993902531000998,0.9013953130727752,92.45759826263311,287.4123516141905,50.3319845600011,0.0,0,0.0,,,,,,
26.993902531000998,0.9210378749380305,93.45759826263311,287.4123516141905,51.487727844097016,0.0,0,0.0,,,,,,
27.993902531000998,0.9402444145701364,94.45759826263311,287.4123516141905,52.64347112819293,0.0,0,0.0,,,,,,
28.993902531000998,0.9590338691000052,95.45759826263311,287.4123516141905,53.79921441228884,0.0,0,0.0,,,,,,
29.993902531000998,0.9774239681759421,96.45759826263311,287.4123516141905,54.95495769638475,0.0,0,0.0,,,,,,
30.993902531000998,0.9954313344836395,97.45759826263311,287.4123516141905,56.110700980480665,0.0,0,0.0,,,,,,
31.993902531000998,1.013071574019369,98.45759826263311,287.4123516141905,57.26644426457658,0.0,0,0.0,,,,,,
32.993902531001,1.030359357344774,99.45759826263311,287.4123516141905,58.42218754867249,0.0,0,0.0,,,,,,
33.993902531001,1.0473084928832224,100.45759826263311,287.4123516141905,59.5779308327684,0.0,0,0.0,,,,,,
34.993902531001,1.0639319931751292,101.45759826263311,287.4123516141905,60.733674116864314,0.0,0,0.0,,,,,,
35.993902531001,1.080242134888603,102.45759826263311,287.4123516141905,61.88941740096023,0.0,0,0.0,,,,,,
36.993902531001,1.0962505132786355,103.45759826263311,287.4123516141905,63.04516068505614,0.0,0,0.0,,,,,,
37.993902531001,1.1119680916999015,104.45759826263311,287.4123516141905,64.20090396915205,0.0,0,0.0,,,,,,
38.993902531001,1.1274052467026754,105.45759826263311,287.4123516141905,65.35664725324796,0.0,0,0.0,,,,,,
39.993902531001,1.1425718091763928,106.45759826263311,287.4123516141905,66.51239053734386,0.0,0,-0.0,,,,,,
40.993902531001,1.1574771019493755,107.45759826263311,287.4123516141905,67.66813382143977,0.0,0,-0.0,,,,,,
41.993902531001,1.1721299742048075,108.45759826263311,287.4123516141905,68.82387710553567,0.0,0,-0.0,,,,,,
42.993902531001,1.1865388330310747,109.45759826263311,287.4123516141905,69.97962038963158,0.0,0,-0.0,,,,,,
43.993902531001,1.2007116723881057,110.45759826263311,287.4123516141905,71.13536367372748,0.0,0,-0.0,,,,,,
44.993902531001,1.2146560997395799,111.45759826263311,287.4123516141905,72.29110695782339,0.0,0,-0.0,,,,,,
45.993902531001,1.2283793605731244,112.45759826263311,287.4123516141905,73.4468502419193,0.0,0,-0.0,,,,,,
46.993902531001,1.2418883610063511,113.45759826263311,287.4123516141905,74.6025935260152,0.0,0,-0.0,,,,,,
47.993902531001,1.2551896886552893,114.45759826263311,287.4123516141905,75.7583368101111,0.0,0,-0.0,,,,,,
48.993902531001,1.26828963192306,115.45759826263311,287.4123516141905,76.91408009420701,0.0,0,-0.0,,,,,,
49.993902531001,1.2811941978501582,116.45759826263311,287.4123516141905,78.06982337830291,0.0,0,-0.0,,,,,,
50.993902531001,1.2939091286531683,117.45759826263311,287.4123516141905,79.22556666239882,0.0,0,-0.0,,,,,,
51.993902531001,1.3064399170658811,118.45759826263311,287.4123516141905,80.38130994649472,0.0,0,-0.0,,,,,,
52.993902531001,1.318791820585389,119.45759826263311,287.4123516141905,81.53705323059063,0.0,0,-0.0,,,,,,
53.993902531001,1.330969874715634,120.45759826263311,287.4123516141905,82.69279651468653,0.0,0,-0.0,,,,,,
54.993902531001,1.3429789052918961,121.45759826263311,287.4123516141905,83.84853979878244,0.0,0,-0.0,,,,,,
55.993902531001,1.3548235399617097,122.45759826263311,287.4123516141905,85.00428308287835,0.0,0,-0.0,,,,,,
56.993902531001,1.3665082188905606,123.45759826263311,287.4123516141905,86.16002636697425,0.0,0,-0.0,,,,,,
57.993902531001,1.3780372047543406,124.45759826263311,287.4123516141905,87.31576965107016,0.0,0,-0.0,,,,,,
58.993902531001,1.3894145920748304,125.45759826263311,287.4123516141905,88.47151293516606,0.0,0,-0.0,,,,,,
59.993902531001,1.4006443159493722,126.45759826263311,287.4123516141905,89.62725621926197,0.0,0,-0.0,,,,,,
60.993902531001,1.4117301602213022,127.45759826263311,287.4123516141905,90.78299950335787,0.0,0,-0.0,,,,,,
61.993902531000984,1.4226757651335893,128.4575982626331,287.4123516141905,91.93874278745376,0.0,0,-0.0,,,,,,
62.993902531000984,1.43348463450442,129.4575982626331,287.4123516141905,93.09448607154967,0.0,0,-0.0,,,,,,
63.993902531000984,1.4441601424601127,130.4575982626331,287.4123516141905,94.25022935564557,0.0,0,-0.0,,,,,,
64.99390253100098,1.4547055397577378,131.4575982626331,287.4123516141905,95.40597263974148,0.0,0,-0.0,,,,,,
65.99390253100098,1.4651545344908559,132.4575982626331,287.4123516141905,96.0,0.0,0,-0.0,,,,,,
66.99390253100098,1.4755712011575226,133.4575982626331,287.4123516141905,96.0,0.0,0,-0.0,,,,,,
67.99390253100098,1.4859878678241893,134.4575982626331,287.4123516141905,96.0,0.0,0,-0.0,,,,,,
68.99390253100098,1.496404534490856,135.4575982626331,287.4123516141905,96.0,0.0,0,-0.0,,,,,,
69.99390253100098,1.5068212011575228,136.4575982626331,287.4123516141905,96.0,0.0,0,-0.0,,,,,,
70.99390253100098,1.5172378678241896,137.4575982626331,287.4123516141905,96.0,0.0,0,-0.0,,,,,,
71.99390253100098,1.5276545344908563,138.4575982626331,287.4123516141905,96.0,0.0,0,-0.0,,,,,,
72.99390253100098,1.538071201157523,139.4575982626331,287.4123516141905,96.0,0.0,0,-0.0,,,,,,
73.99390253100098,1.5484878678241898,140.4575982626331,287.4123516141905,96.0,0.0,0,-0.0,,,,,,
74.99390253100098,1.5589045344908565,141.4575982626331,287.4123516141905,96.0,0.0,0,-0.0,,,,,,
75.99390253100098,1.5693212011575233,142.4575982626331,287.4123516141905,96.0,0.0,0,-0.0,,,,,,
76.99390253100098,1.57973786782419,143.4575982626331,287.4123516141905,96.0,0.0,0,-0.0,,,,,,
77.99390253100098,1.5901545344908568,144.4575982626331,287.4123516141905,96.0,0.0,0,-0.0,,,,,,
78.99390253100098,1.6005712011575235,145.4575982626331,287.4123516141905,96.0,0.0,0,-0.0,,,,,,
79.99390253100098,1.6109878678241902,146.4575982626331,287.4123516141905,96.0,0.0,0,0.0,,,,,,
80.99390253100098,1.621404534490857,147.4575982626331,287.4123516141905,96.0,0.0,0,0.0,,,,,,
81.99390253100098,1.6318212011575237,148.4575982626331,287.4123516141905,96.0,0.0,0,0.0,,,,,,
82.99390253100098,1.6422378678241905,149.4575982626331,287.4123516141905,96.0,0.0,0,0.0,,,,,,
83.99390253100098,1.6526545344908572,150.4575982626331,287.4123516141905,96.0,0.0,0,0.0,,,,,,
84.99390253100098,1.663071201157524,151.4575982626331,287.4123516141905,96.0,0.0,0,0.0,,,,,,
85.99390253100098,1.6734878678241907,152.4575982626331,287.4123516141905,96.0,0.0,0,0.0,,,,,,
86.99390253100098,1.6839045344908574,153.4575982626331,287.4123516141905,96.0,0.0,0,0.0,,,,,,
87.99390253100098,1.6943212011575242,154.4575982626331,287.4123516141905,96.0,0.0,0,0.0,,,,,,
88.99390253100098,1.704737867824191,155.4575982626331,287.4123516141905,96.0,0.0,0,0.0,,,,,,
89.99390253100098,1.7151545344908576,156.4575982626331,287.4123516141905,96.0,0.0,0,0.0,,,,,,
90.99390253100098,1.7255712011575244,157.4575982626331,287.4123516141905,96.0,0.0,0,0.0,,,,,,
91.99390253100098,1.7359878678241911,158.4575982626331,287.4123516141905,96.0,0.0,0,0.0,,,,,,
92.99390253100098,1.7464045344908579,159.4575982626331,287.4123516141905,96.0,0.0,0,0.0,,,,,,
93.99390253100098,1.7568212011575246,160.4575982626331,287.4123516141905,96.0,0.0,0,0.0,,,,,,
94.99390253100098,1.7672378678241913,161.4575982626331,287.4123516141905,96.0,0.0,0,0.0,,,,,,
95.99390253100098,1.777654534490858,162.4575982626331,287.4123516141905,96.0,0.0,0,0.0,,,,,,
96.99390253100098,1.7880712011575248,163.4575982626331,287.4123516141905,96.0,0.0,0,0.0,,,,,,
97.99390253100098,1.7984878678241916,164.4575982626331,287.4123516141905,96.0,0.0,0,0.0,,,,,,
98.99390253100098,1.8089045344908583,165.4575982626331,287.4123516141905,96.0,0.0,0,0.0,,,,,,
99.99390253100098,1.819321201157525,166.4575982626331,287.4123516141905,96.0,0.0,0,0.0,,,,,,
100.99390253100098,1.8297378678241918,167.4575982626331,287.4123516141905,96.0,0.0,0,0.0,,,,,,
101.99390253100098,1.8401545344908585,168.4575982626331,287.4123516141905,96.0,0.0,0,0.0,,,,,,
102.99390253100098,1.8505712011575253,169.4575982626331,287.4123516141905,96.0,0.0,0,0.0,,,,,,
103.99390253100098,1.860987867824192,170.4575982626331,287.4123516141905,96.0,0.0,0,0.0,,,,,,
104.99390253100098,1.8714045344908588,171.4575982626331,287.4123516141905,96.0,0.0,0,0.0,,,,,,
105.99390253100098,1.8818212011575255,172.4575982626331,287.4123516141905,96.0,0.0,0,0.0,,,,,,
106.99390253100098,1.8922378678241922,173.4575982626331,287.4123516141905,96.0,0.0,0,0.0,,,,,,
107.99390253100098,1.902654534490859,174.4575982626331,287.4123516141905,96.0,0.0,0,0.0,,,,,,
108.99390253100098,1.9130712011575257,175.4575982626331,287.4123516141905,96.0,0.0,0,0.0,,,,,,
109.99390253100098,1.9234878678241925,176.4575982626331,287.4123516141905,96.0,0.0,0,0.0,,,,,,
110.99390253100098,1.9339045344908592,177.4575982626331,287.4123516141905,96.0,0.0,0,0.0,,,,,,
111.99390253100098,1.944321201157526,178.4575982626331,287.4123516141905,96.0,0.0,0,0.0,,,,,,
112.99390253100098,1.9547378678241927,179.4575982626331,287.4123516141905,96.0,0.0,0,0.0,,,,,,
113.99390253100098,1.9651545344908594,180.4575982626331,287.4123516141905,96.0,0.0,0,0.0,,,,,,
114.99390253100098,1.9755712011575262,181.4575982626331,287.4123516141905,96.0,0.0,0,0.0,,,,,,
115.99390253100098,1.985987867824193,182.4575982626331,287.4123516141905,96.0,0.0,0,0.0,,,,,,
116.99390253100098,1.9964045344908596,183.4575982626331,287.4123516141905,96.0,0.0,0,0.0,,,,,,
117.99390253100098,2.006821201157526,184.4575982626331,287.4123516141905,96.0,0.0,0,0.0,,,,,,
118.99390253100098,2.0172378678241927,185.4575982626331,287.4123516141905,96.0,0.0,0,0.0,,,,,,
119.99390253100098,2.027654534490859,186.4575982626331,287.4123516141905,96.0,0.0,0,0.0,,,,,,
120.99390253100098,2.0380712011575257,187.4575982626331,287.4123516141905,96.0,0.0,0,0.0,,,,,,
121.99390253100098,2.0484878678241922,188.4575982626331,287.4123516141905,96.0,0.0,0,0.0,,,,,,
122.99390253100098,2.0589045344908588,189.4575982626331,287.4123516141905,96.0,0.0,0,0.0,,,,,,
123.99390253100098,2.0693212011575253,190.4575982626331,287.4123516141905,96.0,0.0,0,0.0,,,,,,
124.99390253100098,2.079737867824192,191.4575982626331,287.4123516141905,96.0,0.0,0,0.0,,,,,,
125.99390253100098,2.0901545344908583,192.4575982626331,287.4123516141905,96.0,0.0,0,0.0,,,,,,
126.99390253100098,2.100571201157525,193.4575982626331,287.4123516141905,96.0,0.0,0,0.0,,,,,,
127.99390253100098,2.1109878678241913,194.4575982626331,287.4123516141905,96.0,0.0,0,0.0,,,,,,
128.99390253100097,2.121404534490858,195.4575982626331,287.4123516141905,96.0,0.0,0,0.0,,,,,,
129.99390253100097,2.1318212011575244,196.4575982626331,287.4123516141905,96.0,0.0,0,0.0,,,,,,
130.99390253100097,2.142237867824191,197.4575982626331,287.4123516141905,96.0,0.0,0,0.0,,,,,,
131.99390253100097,2.1526545344908574,198.4575982626331,287.4123516141905,96.0,0.0,0,0.0,,,,,,
132.99390253100097,2.163071201157524,199.4575982626331,287.4123516141905,96.0,0.0,0,0.0,,,,,,
133.56784639706763,2.1690857415180846,200.0,287.6,94.85211226786669,0.0,0,0.0,,,,,,
134.56784639706763,2.1797408027184746,201.0,287.6,92.85211226786669,0.0,0,0.0,,,,,,
135.56784639706763,2.190627868625938,202.0,287.6,90.85211226786669,0.0,0,0.0,,,,,,
136.56784639706763,2.2017572675322072,203.0,287.6,88.85211226786669,0.0,0,0.0,,,,,,
137.56784639706763,2.2131400331161575,204.0,287.6,86.85211226786669,0.0,0,0.0,,,,,,
138.56784639706763,2.2247879701742455,205.0,287.6,84.85211226786669,0.0,0,0.0,,,,,,
139.56784639706763,2.2367137281898035,206.0,287.6,82.85211226786669,0.0,0,0.0,,,,,,
140.56784639706763,2.2489308838904094,207.0,287.6,80.85211226786669,0.0,0,0.0,,,,,,
141.56784639706763,2.2614540341440366,208.0,287.6,78.85211226786669,0.0,0,0.0,,,,,,
142.56784639706763,2.274298900787594,209.0,287.6,76.85211226786669,0.0,0,0.0,,,,,,
143.56784639706763,2.2874824492755854,210.0,287.6,74.85211226786669,0.0,0,0.0,,,,,,
144.56784639706763,2.3010230233944804,211.0,287.6,72.85211226786669,0.0,0,0.0,,,,,,
145.56784639706763,2.314940498725922,212.0,287.6,70.85211226786669,0.0,0,0.0,,,,,,
146.56784639706763,2.3292564580796666,213.0,287.6,68.85211226786669,0.0,0,0.0,,,,,,
147.56784639706763,2.343994392781717,214.0,287.6,66.85211226786669,0.0,0,0.0,,,,,,
148.56784639706763,2.359179934529145,215.0,287.6,64.85211226786669,0.0,0,0.0,,,,,,
149.56784639706763,2.3748411235561404,216.0,287.6,62.85211226786669,0.0,0,0.0,,,,,,
150.56784639706763,2.391008720156063,217.0,287.6,60.85211226786669,0.0,0,0.0,,,,,,
151.56784639706763,2.4077165682521255,218.0,287.6,58.85211226786669,0.0,0,0.0,,,,,,
152.56784639706763,2.4250020218129187,219.0,287.6,56.85211226786669,0.0,0,0.0,,,,,,
153.56784639706763,2.4429064476151874,220.0,287.6,54.85211226786669,0.0,0,0.0,,,,,,
154.56784639706763,2.4614758213665064,221.0,287.6,52.85211226786669,0.0,0,0.0,,,,,,
155.56784639706763,2.4807614387938934,222.0,287.6,50.85211226786669,0.0,0,0.0,,,,,,
156.56784639706763,2.50082076937204,223.0,287.6,48.85211226786669,0.0,0,0.0,,,,,,
157.56784639706763,2.5217184884612664,224.0,287.6,46.85211226786669,0.0,0,0.0,,,,,,
158.56784639706763,2.5435277345469873,225.0,287.6,44.85211226786669,0.0,0,0.0,,,,,,
159.56784639706763,2.5663316531790383,226.0,287.6,42.85211226786669,0.0,0,0.0,,,,,,
160.56784639706763,2.590225309814567,227.0,287.6,40.85211226786669,0.0,0,0.0,,,,,,
161.56784639706763,2.6153180826462425,228.0,287.6,38.85211226786669,0.0,0,0.0,,,,,,
162.56784639706763,2.6417366875822985,229.0,287.6,36.85211226786669,0.0,0,0.0,,,,,,
163.56784639706763,2.66962904696488,230.0,287.6,34.85211226786669,0.0,0,0.0,,,,,,
164.56784639706763,2.6991693011176237,231.0,287.6,32.85211226786669,0.0,0,0.0,,,,,,
165.56784639706763,2.7305643932732178,232.0,287.6,30.852112267866687,0.0,0,-0.0,,,,,,
166.56784639706763,2.7640628603507524,233.0,287.6,28.852112267866687,0.0,0,-0.0,,,,,,
167.56784639706763,2.799966779966706,234.0,287.6,26.852112267866687,0.0,0,-0.0,,,,,,
168.56784639706763,2.8386483387360046,235.0,287.6,24.852112267866687,0.0,0,-0.0,,,,,,
169.56784639706763,2.8805733468346455,236.0,287.6,22.852112267866687,0.0,0,-0.0,,,,,,
170.56784639706763,2.9263355133356153,237.0,287.6,20.852112267866687,0.0,0,-0.0,,,,,,
171.56784639706763,2.9767079868793314,238.0,287.6,18.852112267866687,0.0,0,-0.0,,,,,,
172.56784639706763,3.032723767252838,239.0,287.6,16.852112267866687,0.0,0,-0.0,,,,,,
173.56784639706763,3.0958068430664674,240.0,287.6,14.852112267866687,0.0,0,-0.0,,,,,,
174.56784639706763,3.167997999235461,241.0,287.6,12.852112267866687,0.0,0,-0.0,,,,,,
175.56784639706763,3.248474056097073,242.0,287.6,12.0,0.0,0,0.0,,,,,,
176.56784639706763,3.3318073894304066,243.0,287.6,12.0,0.0,0,0.0,,,,,,
177.56784639706763,3.41514072276374,244.0,287.6,12.0,0.0,0,0.0,,,,,,
178.56784639706763,3.4984740560970735,245.0,287.6,12.0,0.0,0,0.0,,,,,,
179.56784639706763,3.581807389430407,246.0,287.6,12.0,0.0,0,0.0,,,,,,
180.56784639706763,3.6651407227637405,247.0,287.6,12.0,0.0,0,0.0,,,,,,
181.56784639706763,3.831807389430407,248.0,287.6,0.0,0.0,0,0.0,,,,,,
