Distance (in),Time (s),X (in),Y (in),Velocity (in/s),Orientation (deg),Touch,Rotational Velocity (deg/s),Way X (in),Way Y (in),Way Velocity (in/s),Way Orientation (deg),Way Turn Radius (in),Touch this Point
0.0,0.0,74.0,40.60000000000002,0.0,0.0,0,0.0,74.0,40.60000000000002,0.0,0.0,3.0,0
0.9999999999999978,0.1666666666666663,74.92307692307692,40.215384615384636,12.0,0.0,0,0.0,110.0,25.600000000000023,192.0,0.0,3.0,0
1.9999999999999956,0.24999999999999944,75.84615384615384,39.83076923076925,12.0,0.0,0,0.0,210.0,25.600000000000023,192.0,0.0,3.0,0
2.9999999999999933,0.3333333333333326,76.76923076923076,39.44615384615386,12.0,0.0,0,0.0,230.0,25.600000000000023,0.0,0.0,3.0,0
3.999999999999991,0.41666666666666574,77.69230769230768,39.061538461538476,12.0,0.0,0,0.0,,,,,,
4.999999999999989,0.49862221300996246,78.6153846153846,38.67692307692309,12.403473458920814,0.0,0,0.0,,,,,,
5.999999999999988,0.571915465267222,79.53846153846152,38.2923076923077,14.884168150704978,0.0,0,-0.0,,,,,,
6.999999999999986,0.6339328325618263,80.46153846153844,37.907692307692315,17.364862842489142,0.0,0,-0.0,,,,,,
7.999999999999984,0.6876812175504834,81.38461538461536,37.52307692307693,19.845557534273304,0.0,0,-0.0,,,,,,
8.999999999999982,0.7351062631287102,82.30769230769228,37.13846153846154,22.326252226057466,0.0,0,-0.0,,,,,,
9.99999999999998,0.777539198646071,83.2307692307692,36.753846153846155,24.80694691784163,0.0,0,-0.0,,,,,,
10.999999999999979,0.8159309022093975,84.15384615384612,36.36923076923077,27.28764160962579,0.0,0,-0.0,,,,,,
11.999999999999977,0.8509841967672173,85.07692307692304,35.98461538461538,29.768336301409953,0.0,0,-0.0,,,,,,
12.999999999999975,0.8832332277604115,85.99999999999996,35.599999999999994,32.24903099319412,0.0,0,-0.0,,,,,,
13.999999999999973,0.9130934416429987,86.92307692307688,35.21538461538461,34.729725684978284,0.0,0,0.0,,,,,,
14.999999999999972,0.9408943304302351,87.8461538461538,34.83076923076922,37.21042037676245,0.0,0,0.0,,,,,,
15.99999999999997,0.9669016134892626,88.76923076923072,34.446153846153834,39.691115068546615,0.0,0,0.0,,,,,,
16.999999999999968,0.9913326975750159,89.69230769230764,34.06153846153845,42.17180976033078,0.0,0,0.0,,,,,,
17.999999999999964,1.0143677197130117,90.61538461538456,33.67692307692306,44.65250445211494,0.0,0,0.0,,,,,,
18.99999999999996,1.0361576055192239,91.53846153846148,33.29230769230767,47.1331991438991,0.0,0,0.0,,,,,,
19.999999999999957,1.056830061284092,92.4615384615384,32.90769230769229,49.61389383568326,0.0,0,0.0,,,,,,
20.999999999999954,1.076494104572625,93.38461538461532,32.5230769230769,52.094588527467415,0.0,0,0.0,,,,,,
21.99999999999995,1.095243541196575,94.30769230769224,32.13846153846151,54.575283219251574,0.0,0,0.0,,,,,,
22.999999999999947,1.1131596695261274,95.23076923076916,31.75384615384613,57.05597791103573,0.0,0,0.0,,,,,,
23.999999999999943,1.1303134094161242,96.15384615384608,31.369230769230747,59.53667260281989,0.0,0,0.0,,,,,,
24.99999999999994,1.1467669966575498,97.076923076923,30.984615384615363,62.01736729460405,0.0,0,0.0,,,,,,
25.999999999999936,1.1625753451836254,97.99999999999991,30.59999999999998,64.49806198638821,0.0,0,0.0,,,,,,
26.999999999999932,1.1777871522558867,98.92307692307683,30.215384615384597,66.97875667817237,0.0,0,0.0,,,,,,
27.99999999999993,1.1924458027073386,99.84615384615375,29.830769230769214,69.45945136995654,0.0,0,0.0,,,,,,
28.999999999999925,1.2065901145464588,100.76923076923067,29.44615384615383,71.9401460617407,0.0,0,0.0,,,,,,
29.999999999999922,1.2202549581876427,101.6923076923076,29.061538461538447,74.42084075352487,0.0,0,0.0,,,,,,
30.99999999999992,1.23347177416846,102.61538461538451,28.676923076923064,76.90153544530904,0.0,0,0.0,,,,,,
31.999999999999915,1.2462690086895687,103.53846153846143,28.29230769230768,79.3822301370932,0.0,0,0.0,,,,,,
32.999999999999915,1.2586724821484896,104.46153846153835,27.907692307692297,81.86292482887737,0.0,0,0.0,,,,,,
33.999999999999915,1.2707057026683382,105.38461538461527,27.523076923076914,84.34361952066153,0.0,0,0.0,,,,,,
34.999999999999915,1.2823901341876114,106.3076923076922,27.13846153846153,86.8243142124457,0.0,0,0.0,,,,,,
35.999999999999915,1.2937454267908488,107.23076923076911,26.753846153846148,89.30500890422987,0.0,0,0.0,,,,,,
36.999999999999915,1.3047896154871481,108.15384615384603,26.369230769230764,91.78570359601403,0.0,0,0.0,,,,,,
37.999999999999915,1.3155392924848794,109.07692307692295,25.98461538461538,94.2663982877982,0.0,0,0.0,,,,,,
38.999999999999915,1.3260097570930593,109.99999999999987,25.599999999999998,96.74709297958236,0.0,0,0.0,,,,,,
39.00000000000004,1.3260097570930607,110.0,25.600000000000023,96.74709297958248,0.0,0,0.0,,,,,,
40.00000000000004,1.3363003009759566,111.0,25.600000000000023,97.60609405887959,0.0,0,0.0,,,,,,
41.00000000000004,1.3465006777278412,112.0,25.600000000000023,98.46509513817671,0.0,0,0.0,,,,,,
42.00000000000004,1.356612453736894,113.0,25.600000000000023,99.32409621747382,0.0,0,0.0,,,,,,
43.00000000000004,1.366637154925712,114.0,25.600000000000023,100.18309729677094,0.0,0,0.0,,,,,,
44.00000000000004,1.3765762681332432,115.0,25.600000000000023,101.04209837606805,0.0,0,0.0,,,,,,
45.00000000000004,1.3864312424382268,116.0,25.600000000000023,101.90109945536517,0.0,0,0.0,,,,,,
46.00000000000004,1.3962034904270857,117.0,25.600000000000023,102.76010053466229,0.0,0,0.0,,,,,,
47.00000000000004,1.4058943894090468,118.0,25.600000000000023,103.6191016139594,0.0,0,0.0,,,,,,
48.00000000000004,1.415505282581102,119.0,25.600000000000023,104.47810269325652,0.0,0,0.0,,,,,,
49.00000000000004,1.4250374801452759,120.0,25.600000000000023,105.33710377255363,0.0,0,0.0,,,,,,
50.00000000000004,1.434492260380521,121.0,25.600000000000023,106.19610485185075,0.0,0,0.0,,,,,,
51.00000000000004,1.4438708706714383,122.0,25.600000000000023,107.05510593114786,0.0,0,0.0,,,,,,
52.00000000000004,1.4531745284958888,123.0,25.600000000000023,107.91410701044498,0.0,0,0.0,,,,,,
53.00000000000004,1.4624044223734547,124.0,25.600000000000023,108.7731080897421,0.0,0,0.0,,,,,,
54.00000000000004,1.4715617127765968,125.0,25.600000000000023,109.63210916903921,0.0,0,0.0,,,,,,
55.00000000000004,1.4806475330062554,126.0,25.600000000000023,110.49111024833633,0.0,0,0.0,,,,,,
56.00000000000004,1.489662990033547,127.0,25.600000000000023,111.35011132763344,0.0,0,0.0,,,,,,
57.00000000000004,1.498609165309118,128.0,25.600000000000023,112.20911240693056,0.0,0,0.0,,,,,,
58.00000000000004,1.5074871155416396,129.0,25.600000000000023,113.06811348622767,0.0,0,0.0,,,,,,
59.00000000000004,1.516297873446841,130.0,25.600000000000023,113.92711456552479,0.0,0,0.0,,,,,,
60.00000000000004,1.525042448468411,131.0,25.600000000000023,114.7861156448219,0.0,0,0.0,,,,,,
61.00000000000004,1.5337218274720257,132.0,25.600000000000023,115.64511672411902,0.0,0,0.0,,,,,,
62.00000000000004,1.542336975413695,133.0,25.600000000000023,116.50411780341614,0.0,0,0.0,,,,,,
63.00000000000004,1.5508888359835626,134.0,25.600000000000023,117.36311888271325,0.0,0,0.0,,,,,,
64.00000000000004,1.5593783322262293,135.0,25.600000000000023,118.22211996201037,0.0,0,0.0,,,,,,
65.00000000000004,1.5678063671386224,136.0,25.600000000000023,119.08112104130748,0.0,0,0.0,,,,,,
66.00000000000004,1.5761738242463792,137.0,25.600000000000023,119.9401221206046,0.0,0,0.0,,,,,,
67.00000000000004,1.5844815681596631,138.0,25.600000000000023,120.79912319990171,0.0,0,-0.0,,,,,,
68.00000000000004,1.5927304451092887,139.0,25.600000000000023,121.65812427919883,0.0,0,-0.0,,,,,,
69.00000000000004,1.6009212834639852,140.0,25.600000000000023,122.51712535849595,0.0,0,-0.0,,,,,,
70.00000000000004,1.6090548942295906,141.0,25.600000000000023,123.37612643779306,0.0,0,-0.0,,,,,,
71.00000000000004,1.6171320715309276,142.0,25.600000000000023,124.23512751709018,0.0,0,-0.0,,,,,,
72.00000000000004,1.6251535930770784,143.0,25.600000000000023,125.09412859638729,0.0,0,-0.0,,,,,,
73.00000000000004,1.6331202206107378,144.0,25.600000000000023,125.95312967568441,0.0,0,-0.0,,,,,,
74.00000000000004,1.6410327003422973,145.0,25.600000000000023,126.81213075498152,0.0,0,-0.0,,,,,,
75.00000000000004,1.6488917633692755,146.0,25.600000000000023,127.67113183427864,0.0,0,-0.0,,,,,,
76.00000000000004,1.6566981260816858,147.0,25.600000000000023,128.53013291357576,0.0,0,-0.0,,,,,,
77.00000000000004,1.6644524905539042,148.0,25.600000000000023,129.38913399287287,0.0,0,-0.0,,,,,,
78.00000000000004,1.6721555449235717,149.0,25.600000000000023,130.24813507217,0.0,0,-0.0,,,,,,
79.00000000000004,1.6798079637580425,150.0,25.600000000000023,131.1071361514671,0.0,0,-0.0,,,,,,
80.00000000000004,1.6874104084088684,151.0,25.600000000000023,131.96613723076422,0.0,0,-0.0,,,,,,
81.00000000000004,1.6949635273547818,152.0,25.600000000000023,132.82513831006133,0.0,0,-0.0,,,,,,
82.00000000000004,1.7024679565336251,153.0,25.600000000000023,133.68413938935845,0.0,0,-0.0,,,,,,
83.00000000000004,1.7099243196636493,154.0,25.600000000000023,134.54314046865557,0.0,0,-0.0,,,,,,
84.00000000000004,1.7173332285545888,155.0,25.600000000000023,135.40214154795268,0.0,0,-0.0,,,,,,
85.00000000000004,1.7246952834088993,156.0,25.600000000000023,136.2611426272498,0.0,0,-0.0,,,,,,
86.00000000000004,1.7320110731135319,157.0,25.600000000000023,137.1201437065469,0.0,0,-0.0,,,,,,
87.00000000000004,1.7392811755225948,158.0,25.600000000000023,137.97914478584403,0.0,0,-0.0,,,,,,
88.00000000000004,1.7465061577312446,159.0,25.600000000000023,138.83814586514114,0.0,0,-0.0,,,,,,
89.00000000000004,1.753686576341131,160.0,25.600000000000023,139.69714694443826,0.0,0,-0.0,,,,,,
90.00000000000004,1.760822977717704,161.0,25.600000000000023,140.55614802373537,0.0,0,-0.0,,,,,,
91.00000000000004,1.7679158982396848,162.0,25.600000000000023,141.4151491030325,0.0,0,-0.0,,,,,,
92.00000000000004,1.7749658645409805,163.0,25.600000000000023,142.2741501823296,0.0,0,-0.0,,,,,,
93.00000000000004,1.781973393745319,164.0,25.600000000000023,143.13315126162672,0.0,0,-0.0,,,,,,
94.00000000000004,1.7889389936938644,165.0,25.600000000000023,143.99215234092384,0.0,0,-0.0,,,,,,
95.00000000000004,1.7958631631660622,166.0,25.600000000000023,144.85115342022095,0.0,0,-0.0,,,,,,
96.00000000000004,1.8027463920939566,167.0,25.600000000000023,145.71015449951807,0.0,0,0.0,,,,,,
97.00000000000004,1.8095891617702091,168.0,25.600000000000023,146.56915557881518,0.0,0,0.0,,,,,,
98.00000000000004,1.816391945050038,169.0,25.600000000000023,147.4281566581123,0.0,0,0.0,,,,,,
99.00000000000004,1.8231552065472936,170.0,25.600000000000023,148.28715773740942,0.0,0,0.0,,,,,,
100.00000000000004,1.8298794028248686,171.0,25.600000000000023,149.14615881670653,0.0,0,0.0,,,,,,
101.00000000000004,1.8365649825796437,172.0,25.600000000000023,150.00515989600365,0.0,0,0.0,,,,,,
102.00000000000004,1.8432123868221504,173.0,25.600000000000023,150.86416097530076,0.0,0,0.0,,,,,,
103.00000000000004,1.8498220490511341,174.0,25.600000000000023,151.72316205459788,0.0,0,0.0,,,,,,
104.00000000000004,1.8563943954231905,175.0,25.600000000000023,152.582163133895,0.0,0,0.0,,,,,,
105.00000000000004,1.862929844917639,176.0,25.600000000000023,153.4411642131921,0.0,0,0.0,,,,,,
106.00000000000004,1.8694288094967957,177.0,25.600000000000023,154.30016529248923,0.0,0,0.0,,,,,,
107.00000000000004,1.8758916942617954,178.0,25.600000000000023,155.15916637178634,0.0,0,0.0,,,,,,
108.00000000000004,1.8823188976041134,179.0,25.600000000000023,156.01816745108346,0.0,0,0.0,,,,,,
109.00000000000004,1.8887108113529283,180.0,25.600000000000023,156.87716853038057,0.0,0,0.0,,,,,,
110.00000000000004,1.8950678209184593,181.0,25.600000000000023,157.7361696096777,0.0,0,0.0,,,,,,
111.00000000000004,1.9013903054314125,182.0,25.600000000000023,158.5951706889748,0.0,0,0.0,,,,,,
112.00000000000004,1.9076786378786612,183.0,25.600000000000023,159.45417176827192,0.0,0,0.0,,,,,,
113.00000000000004,1.9139331852352799,184.0,25.600000000000023,160.31317284756904,0.0,0,0.0,,,,,,
114.00000000000004,1.9201543085930524,185.0,25.600000000000023,161.17217392686615,0.0,0,0.0,,,,,,
115.00000000000004,1.9263423632855625,186.0,25.600000000000023,162.03117500616327,0.0,0,0.0,,,,,,
116.00000000000004,1.9324976990099791,187.0,25.600000000000023,162.89017608546038,0.0,0,0.0,,,,,,
117.00000000000004,1.9386206599456381,188.0,25.600000000000023,163.7491771647575,0.0,0,0.0,,,,,,
118.00000000000004,1.9447115848695216,189.0,25.600000000000023,164.6081782440546,0.0,0,0.0,,,,,,
119.00000000000004,1.9507708072687326,190.0,25.600000000000023,165.46717932335173,0.0,0,0.0,,,,,,
120.00000000000004,1.9567986554500574,191.0,25.600000000000023,166.32618040264884,0.0,0,0.0,,,,,,
121.00000000000004,1.962795452646706,192.0,25.600000000000023,167.18518148194596,0.0,0,0.0,,,,,,
122.00000000000004,1.9687615171223178,193.0,25.600000000000023,168.04418256124308,0.0,0,0.0,,,,,,
123.00000000000004,1.9746971622723153,194.0,25.600000000000023,168.9031836405402,0.0,0,0.0,,,,,,
124.00000000000004,1.9806026967226869,195.0,25.600000000000023,169.7621847198373,0.0,0,0.0,,,,,,
125.00000000000004,1.9864784244262779,196.0,25.600000000000023,170.62118579913442,0.0,0,0.0,,,,,,
126.00000000000004,1.9923246447566623,197.0,25.600000000000023,171.48018687843154,0.0,0,0.0,,,,,,
127.00000000000004,1.99814165259967,198.0,25.600000000000023,172.33918795772865,0.0,0,0.0,,,,,,
128.00000000000006,2.0039297384426393,199.0,25.600000000000023,173.19818903702577,0.0,0,0.0,,,,,,
129.00000000000006,2.009689188461459,200.0,25.600000000000023,174.0571901163229,0.0,0,0.0,,,,,,
130.00000000000006,2.015420284605472,201.0,25.600000000000023,174.91619119562,0.0,0,0.0,,,,,,
131.00000000000006,2.021123304680295,202.0,25.600000000000023,175.77519227491712,0.0,0,0.0,,,,,,
132.00000000000006,2.0267985224286234,203.0,25.600000000000023,176.63419335421423,0.0,0,0.0,,,,,,
133.00000000000006,2.032446207609073,204.0,25.600000000000023,177.49319443351135,0.0,0,0.0,,,,,,
134.00000000000006,2.038066626073119,205.0,25.600000000000023,178.35219551280846,0.0,0,0.0,,,,,,
135.00000000000006,2.0436600398401894,206.0,25.600000000000023,179.21119659210558,0.0,0,0.0,,,,,,
136.00000000000006,2.049226707170959,207.0,25.600000000000023,180.0701976714027,0.0,0,0.0,,,,,,
137.00000000000006,2.0547668826389023,208.0,25.600000000000023,180.9291987506998,0.0,0,0.0,,,,,,
138.00000000000006,2.06028081720015,209.0,25.600000000000023,181.78819982999693,0.0,0,0.0,,,,,,
139.00000000000006,2.065922773204996,210.0,25.600000000000023,172.69878983849708,0.0,0,0.0,,,,,,
140.00000000000006,2.0718696998046986,211.0,25.600000000000023,163.60937984699723,0.0,0,0.0,,,,,,
141.00000000000006,2.078156450781527,212.0,25.600000000000023,154.51996985549738,0.0,0,0.0,,,,,,
142.00000000000006,2.0848242169690727,213.0,25.600000000000023,145.43055986399753,0.0,0,0.0,,,,,,
143.00000000000006,2.0919221616203307,214.0,25.600000000000023,136.34114987249768,0.0,0,0.0,,,,,,
144.00000000000006,2.0995096196958136,215.0,25.600000000000023,127.25173988099783,0.0,0,0.0,,,,,,
145.00000000000006,2.1076591117028136,216.0,25.600000000000023,118.16232988949798,0.0,0,0.0,,,,,,
146.00000000000006,2.1164605630703734,217.0,25.600000000000023,109.07291989799813,0.0,0,0.0,,,,,,
147.00000000000006,2.126027358035113,218.0,25.600000000000023,99.98350990649828,0.0,0,0.0,,,,,,
148.00000000000006,2.136505276329827,219.0,25.600000000000023,90.89409991499843,0.0,0,0.0,,,,,,
149.00000000000006,2.148086133392406,220.0,25.600000000000023,81.80468992349859,0.0,0,0.0,,,,,,
150.00000000000006,2.1610294442270535,221.0,25.600000000000023,72.71527993199874,0.0,0,0.0,,,,,,
151.00000000000006,2.1756985298396536,222.0,25.600000000000023,63.62586994049889,0.0,0,0.0,,,,,,
152.00000000000006,2.192624397854192,223.0,25.600000000000023,54.53645994899904,0.0,0,0.0,,,,,,
153.00000000000006,2.2126276964168285,224.0,25.600000000000023,45.44704995749919,0.0,0,0.0,,,,,,
154.00000000000006,2.2370761724378285,225.0,25.600000000000023,36.35763996599934,0.0,0,-0.0,,,,,,
155.00000000000006,2.2685099273219715,226.0,25.600000000000023,27.268229974499494,0.0,0,-0.0,,,,,,
156.00000000000006,2.3125171841597716,227.0,25.600000000000023,18.17881998299965,0.0,0,-0.0,,,,,,
157.00000000000006,2.378788827687472,228.0,25.600000000000023,12.0,0.0,0,0.0,,,,,,
158.00000000000006,2.4621221610208055,229.0,25.600000000000023,12.0,0.0,0,0.0,,,,,,
159.00000000000006,2.628788827687472,230.0,25.600000000000023,0.0,0.0,0,0.0,,,,,,
