Distance (in),Time (s),X (in),Y (in),Velocity (in/s),Orientation (deg),Touch,Rotational Velocity (deg/s),Way X (in),Way Y (in),Way Velocity (in/s),Way Orientation (deg),Way Turn Radius (in),Touch this Point
0.0,0.0,282.0,186.0,12.0,0.0,0,0.0,282.0,186.0,12.0,0.0,3.0,0
1.000000000000024,0.07692475344633841,281.00028332625584,185.9761972220537,13.99943334748832,0.0,0,0.0,240.0,185.0,96.0,0.0,3.0,0.0
2.000000000000048,0.14359519801049336,280.0005666525117,185.95239444410743,15.998866694976641,0.0,0,0.0,155.0,185.0,96.0,0.0,3.0,0.0
3.000000000000072,0.20242362966910618,279.0008499787675,185.92859166616114,17.99830004246496,0.0,0,0.0,78.0,185.0,12.0,0.0,10.0,0.0
4.000000000000096,0.25506070305091993,278.00113330502336,185.90478888821485,19.997733389953282,0.0,0,0.0,74.0,174.0,12.0,0.0,3.0,0.0
5.00000000000012,0.3026855335406434,277.0014166312792,185.88098611026857,21.997166737441603,0.0,0,0.0,,,,,,
6.000000000000144,0.3461696866808737,276.00169995753504,185.85718333232228,23.996600084929923,0.0,0,0.0,,,,,,
7.000000000000168,0.3861755807353652,275.0019832837909,185.833380554376,25.996033432418244,0.0,0,-0.0,,,,,,
8.000000000000192,0.4232184484485224,274.0022666100467,185.8095777764297,27.995466779906565,0.0,0,-0.0,,,,,,
9.000000000000217,0.45770693518627803,273.00254993630256,185.78577499848342,29.994900127394885,0.0,0,-0.0,,,,,,
10.000000000000242,0.48997060233906164,272.0028332625584,185.76197222053713,31.994333474883206,0.0,0,-0.0,,,,,,
11.000000000000266,0.5202790972190583,271.00311658881424,185.73816944259084,33.993766822371526,0.0,0,-0.0,,,,,,
12.000000000000291,0.5488558463761128,270.0033999150701,185.71436666464456,35.99320016985985,0.0,0,-0.0,,,,,,
13.000000000000316,0.5758880483575828,269.0036832413259,185.69056388669827,37.99263351734817,0.0,0,-0.0,,,,,,
14.000000000000341,0.6015341044454887,268.00396656758176,185.66676110875198,39.99206686483649,0.0,0,-0.0,,,,,,
15.000000000000366,0.6259292371690709,267.0042498938376,185.6429583308057,41.99150021232481,0.0,0,-0.0,,,,,,
16.00000000000039,0.6491898022898519,266.00453322009344,185.6191555528594,43.99093355981313,0.0,0,-0.0,,,,,,
17.000000000000416,0.6714166426402088,265.0048165463493,185.59535277491312,45.99036690730145,0.0,0,-0.0,,,,,,
18.00000000000044,0.6926977284309009,264.0050998726051,185.57154999696684,47.98980025478977,0.0,0,0.0,,,,,,
19.000000000000465,0.7131102587577223,263.00538319886095,185.54774721902055,49.98923360227809,0.0,0,0.0,,,,,,
20.00000000000049,0.7327223510755019,262.0056665251168,185.52394444107426,51.98866694976641,0.0,0,0.0,,,,,,
21.000000000000515,0.7515944119238787,261.00594985137263,185.50014166312798,53.98810029725473,0.0,0,0.0,,,,,,
22.00000000000054,0.769780258445617,260.0062331776285,185.4763388851817,55.98753364474305,0.0,0,0.0,,,,,,
23.000000000000565,0.7873280431590622,259.0065165038843,185.4525361072354,57.98696699223137,0.0,0,0.0,,,,,,
24.00000000000059,0.8042810219985361,258.00679983014015,185.42873332928912,59.986400339719694,0.0,0,0.0,,,,,,
25.000000000000615,0.8206781964534905,257.007083156396,185.40493055134283,61.985833687208014,0.0,0,0.0,,,,,,
26.00000000000064,0.8365548537863122,256.00736648265183,185.38112777339654,63.985267034696335,0.0,0,0.0,,,,,,
27.000000000000636,0.8519430241440454,255.0076498089077,185.35732499545026,65.9847003821846,0.0,0,0.0,,,,,,
28.000000000000632,0.8668718694479471,254.00793313516357,185.33352221750397,67.98413372967286,0.0,0,0.0,,,,,,
29.00000000000063,0.8813680159250139,253.00821646141944,185.30971943955768,69.98356707716113,0.0,0,0.0,,,,,,
30.000000000000625,0.8954558398063266,252.0084997876753,185.2859166616114,71.98300042464939,0.0,0,0.0,,,,,,
31.00000000000062,0.9091577138904583,251.00878311393117,185.2621138836651,73.98243377213765,0.0,0,0.0,,,,,,
32.00000000000062,0.9224942212332524,250.00906644018704,185.23831110571882,75.98186711962592,0.0,0,0.0,,,,,,
33.00000000000061,0.9354843410869065,249.0093497664429,185.21450832777253,77.98130046711418,0.0,0,0.0,,,,,,
34.000000000000604,0.948145611303477,248.00963309269878,185.19070554982625,79.98073381460244,0.0,0,0.0,,,,,,
35.0000000000006,0.9604942706894098,247.00991641895465,185.16690277187996,81.98016716209071,0.0,0,0.0,,,,,,
36.00000000000059,0.972545384209626,246.0101997452105,185.14309999393367,83.97960050957897,0.0,0,0.0,,,,,,
37.00000000000058,0.9843129534623034,245.01048307146638,185.1192972159874,85.97903385706724,0.0,0,0.0,,,,,,
38.000000000000576,0.995810014455905,244.01076639772225,185.0954944380411,87.9784672045555,0.0,0,0.0,,,,,,
39.00000000000057,1.0070487244004431,243.01104972397812,185.0716916600948,89.97790055204376,0.0,0,0.0,,,,,,
40.00000000000056,1.0180404389615993,242.011333050234,185.04788888214853,91.97733389953203,0.0,0,0.0,,,,,,
41.000000000000554,1.0287957812082529,241.01161637648985,185.02408610420224,93.97676724702029,0.0,0,0.0,,,,,,
42.00000000000055,1.0393247033026343,240.01189970274572,185.00028332625595,95.97620059450855,0.0,0,0.0,,,,,,
42.0119030752,1.0394487141446331,240.0,185.0,95.99209842831455,0.0,0,0.0,,,,,,
43.0119030752,1.0498658095166427,239.0,185.0,96.0,0.0,0,0.0,,,,,,
44.0119030752,1.0602824761833094,238.0,185.0,96.0,0.0,0,0.0,,,,,,
45.0119030752,1.0706991428499761,237.0,185.0,96.0,0.0,0,0.0,,,,,,
46.0119030752,1.0811158095166429,236.0,185.0,96.0,0.0,0,0.0,,,,,,
47.0119030752,1.0915324761833096,235.0,185.0,96.0,0.0,0,0.0,,,,,,
48.0119030752,1.1019491428499764,234.0,185.0,96.0,0.0,0,0.0,,,,,,
49.0119030752,1.112365809516643,233.0,185.0,96.0,0.0,0,0.0,,,,,,
50.0119030752,1.1227824761833098,232.0,185.0,96.0,0.0,0,0.0,,,,,,
51.0119030752,1.1331991428499766,231.0,185.0,96.0,0.0,0,0.0,,,,,,
52.0119030752,1.1436158095166433,230.0,185.0,96.0,0.0,0,0.0,,,,,,
53.0119030752,1.15403247618331,229.0,185.0,96.0,0.0,0,0.0,,,,,,
54.0119030752,1.1644491428499768,228.0,185.0,96.0,0.0,0,0.0,,,,,,
55.0119030752,1.1748658095166435,227.0,185.0,96.0,0.0,0,0.0,,,,,,
56.0119030752,1.1852824761833103,226.0,185.0,96.0,0.0,0,0.0,,,,,,
57.0119030752,1.195699142849977,225.0,185.0,96.0,0.0,0,0.0,,,,,,
58.0119030752,1.2061158095166438,224.0,185.0,96.0,0.0,0,0.0,,,,,,
59.0119030752,1.2165324761833105,223.0,185.0,96.0,0.0,0,0.0,,,,,,
60.0119030752,1.2269491428499772,222.0,185.0,96.0,0.0,0,0.0,,,,,,
61.0119030752,1.237365809516644,221.0,185.0,96.0,0.0,0,0.0,,,,,,
62.0119030752,1.2477824761833107,220.0,185.0,96.0,0.0,0,0.0,,,,,,
63.0119030752,1.2581991428499775,219.0,185.0,96.0,0.0,0,0.0,,,,,,
64.0119030752,1.268615809516644,218.0,185.0,96.0,0.0,0,0.0,,,,,,
65.0119030752,1.2790324761833107,217.0,185.0,96.0,0.0,0,0.0,,,,,,
66.0119030752,1.2894491428499775,216.0,185.0,96.0,0.0,0,0.0,,,,,,
67.0119030752,1.2998658095166442,215.0,185.0,96.0,0.0,0,0.0,,,,,,
68.0119030752,1.310282476183311,214.0,185.0,96.0,0.0,0,0.0,,,,,,
69.0119030752,1.3206991428499777,213.0,185.0,96.0,0.0,0,0.0,,,,,,
70.0119030752,1.3311158095166444,212.0,185.0,96.0,0.0,0,0.0,,,,,,
71.0119030752,1.3415324761833112,211.0,185.0,96.0,0.0,0,-0.0,,,,,,
72.0119030752,1.351949142849978,210.0,185.0,96.0,0.0,0,-0.0,,,,,,
73.0119030752,1.3623658095166447,209.0,185.0,96.0,0.0,0,-0.0,,,,,,
74.0119030752,1.3727824761833114,208.0,185.0,96.0,0.0,0,-0.0,,,,,,
75.0119030752,1.3831991428499781,207.0,185.0,96.0,0.0,0,-0.0,,,,,,
76.0119030752,1.3936158095166449,206.0,185.0,96.0,0.0,0,-0.0,,,,,,
77.0119030752,1.4040324761833116,205.0,185.0,96.0,0.0,0,-0.0,,,,,,
78.0119030752,1.4144491428499784,204.0,185.0,96.0,0.0,0,-0.0,,,,,,
79.0119030752,1.424865809516645,203.0,185.0,96.0,0.0,0,-0.0,,,,,,
80.0119030752,1.4352824761833118,202.0,185.0,96.0,0.0,0,-0.0,,,,,,
81.0119030752,1.4456991428499786,201.0,185.0,96.0,0.0,0,-0.0,,,,,,
82.0119030752,1.4561158095166453,200.0,185.0,96.0,0.0,0,-0.0,,,,,,
83.0119030752,1.466532476183312,199.0,185.0,96.0,0.0,0,-0.0,,,,,,
84.0119030752,1.4769491428499788,198.0,185.0,96.0,0.0,0,-0.0,,,,,,
85.0119030752,1.4873658095166455,197.0,185.0,96.0,0.0,0,-0.0,,,,,,
86.0119030752,1.4977824761833123,196.0,185.0,96.0,0.0,0,-0.0,,,,,,
87.0119030752,1.508199142849979,195.0,185.0,96.0,0.0,0,-0.0,,,,,,
88.0119030752,1.5186158095166458,194.0,185.0,96.0,0.0,0,-0.0,,,,,,
89.0119030752,1.5290324761833125,193.0,185.0,96.0,0.0,0,-0.0,,,,,,
90.0119030752,1.5394491428499792,192.0,185.0,96.0,0.0,0,-0.0,,,,,,
91.0119030752,1.549865809516646,191.0,185.0,96.0,0.0,0,-0.0,,,,,,
92.0119030752,1.5602824761833127,190.0,185.0,96.0,0.0,0,-0.0,,,,,,
93.0119030752,1.5706991428499795,189.0,185.0,96.0,0.0,0,-0.0,,,,,,
94.0119030752,1.5811158095166462,188.0,185.0,96.0,0.0,0,-0.0,,,,,,
95.0119030752,1.591532476183313,187.0,185.0,96.0,0.0,0,-0.0,,,,,,
96.0119030752,1.6019491428499797,186.0,185.0,96.0,0.0,0,-0.0,,,,,,
97.0119030752,1.6123658095166464,185.0,185.0,96.0,0.0,0,0.0,,,,,,
98.0119030752,1.6227824761833132,184.0,185.0,96.0,0.0,0,0.0,,,,,,
99.0119030752,1.63319914284998,183.0,185.0,96.0,0.0,0,0.0,,,,,,
100.0119030752,1.6436158095166467,182.0,185.0,96.0,0.0,0,0.0,,,,,,
101.0119030752,1.6540324761833134,181.0,185.0,96.0,0.0,0,0.0,,,,,,
102.0119030752,1.6644491428499801,180.0,185.0,96.0,0.0,0,0.0,,,,,,
103.0119030752,1.6748658095166469,179.0,185.0,96.0,0.0,0,0.0,,,,,,
104.0119030752,1.6852824761833136,178.0,185.0,96.0,0.0,0,0.0,,,,,,
105.0119030752,1.6956991428499804,177.0,185.0,96.0,0.0,0,0.0,,,,,,
106.0119030752,1.706115809516647,176.0,185.0,96.0,0.0,0,0.0,,,,,,
107.0119030752,1.7165324761833138,175.0,185.0,96.0,0.0,0,0.0,,,,,,
108.0119030752,1.7269491428499806,174.0,185.0,96.0,0.0,0,0.0,,,,,,
109.0119030752,1.7373658095166473,173.0,185.0,96.0,0.0,0,0.0,,,,,,
110.0119030752,1.747782476183314,172.0,185.0,96.0,0.0,0,0.0,,,,,,
111.0119030752,1.7581991428499808,171.0,185.0,96.0,0.0,0,0.0,,,,,,
112.0119030752,1.7686158095166475,170.0,185.0,96.0,0.0,0,0.0,,,,,,
113.0119030752,1.7790324761833143,169.0,185.0,96.0,0.0,0,0.0,,,,,,
114.0119030752,1.789449142849981,168.0,185.0,96.0,0.0,0,0.0,,,,,,
115.0119030752,1.7998658095166478,167.0,185.0,96.0,0.0,0,0.0,,,,,,
116.0119030752,1.8102824761833145,166.0,185.0,96.0,0.0,0,0.0,,,,,,
117.0119030752,1.8206991428499812,165.0,185.0,96.0,0.0,0,0.0,,,,,,
118.0119030752,1.831115809516648,164.0,185.0,96.0,0.0,0,0.0,,,,,,
119.0119030752,1.8415324761833147,163.0,185.0,96.0,0.0,0,0.0,,,,,,
120.0119030752,1.8519491428499815,162.0,185.0,96.0,0.0,0,0.0,,,,,,
121.0119030752,1.8623658095166482,161.0,185.0,96.0,0.0,0,0.0,,,,,,
122.0119030752,1.872782476183315,160.0,185.0,96.0,0.0,0,0.0,,,,,,
123.0119030752,1.8831991428499817,159.0,185.0,96.0,0.0,0,0.0,,,,,,
124.0119030752,1.8936158095166484,158.0,185.0,96.0,0.0,0,0.0,,,,,,
125.0119030752,1.9040324761833152,157.0,185.0,96.0,0.0,0,0.0,,,,,,
126.0119030752,1.914449142849982,156.0,185.0,96.0,0.0,0,0.0,,,,,,
127.0119030752,1.9249253355935494,155.0,185.0,94.90904959037141,0.0,0,0.0,,,,,,
128.0119030752,1.935522645058684,154.0,185.0,93.81809918074282,0.0,0,0.0,,,,,,
129.0119030752,1.946243904495516,153.0,185.0,92.72714877111423,0.0,0,0.0,,,,,,
130.0119030752,1.957092047746905,152.0,185.0,91.63619836148564,0.0,0,0.0,,,,,,
131.0119030752,1.9680701140674461,151.0,185.0,90.54524795185705,0.0,0,0.0,,,,,,
132.0119030752,1.9791812532345487,150.0,185.0,89.45429754222846,0.0,0,0.0,,,,,,
133.0119030752,1.9904287309730901,149.0,185.0,88.36334713259987,0.0,0,0.0,,,,,,
134.0119030752,2.0018159347170195,148.0,185.0,87.27239672297128,0.0,0,0.0,,,,,,
135.0119030752,2.0133463797333415,147.0,185.0,86.18144631334269,0.0,0,0.0,,,,,,
136.0119030752,2.0250237156361792,146.0,185.0,85.0904959037141,0.0,0,0.0,,,,,,
137.0119030752,2.0368517333211167,145.0,185.0,83.99954549408551,0.0,0,0.0,,,,,,
138.0119030752,2.048834372352787,144.0,185.0,82.90859508445692,0.0,0,0.0,,,,,,
139.0119030752,2.0609757288417265,143.0,185.0,81.81764467482833,0.0,0,0.0,,,,,,
140.0119030752,2.0732800638498987,142.0,185.0,80.72669426519974,0.0,0,0.0,,,,,,
141.0119030752,2.0857518123680507,141.0,185.0,79.63574385557115,0.0,0,0.0,,,,,,
142.0119030752,2.0983955929122255,140.0,185.0,78.54479344594256,0.0,0,0.0,,,,,,
143.0119030752,2.111216217791389,139.0,185.0,77.45384303631397,0.0,0,0.0,,,,,,
144.0119030752,2.124218704103294,138.0,185.0,76.36289262668538,0.0,0,0.0,,,,,,
145.0119030752,2.1374082855214485,137.0,185.0,75.27194221705679,0.0,0,0.0,,,,,,
146.0119030752,2.1507904249424943,136.0,185.0,74.1809918074282,0.0,0,0.0,,,,,,
147.0119030752,2.1643708280704668,135.0,185.0,73.09004139779961,0.0,0,0.0,,,,,,
148.0119030752,2.178155458022485,134.0,185.0,71.99909098817102,0.0,0,0.0,,,,,,
149.0119030752,2.192150551049435,133.0,185.0,70.90814057854243,0.0,0,0.0,,,,,,
150.0119030752,2.206362633475371,132.0,185.0,69.81719016891384,0.0,0,0.0,,,,,,
151.0119030752,2.220798539970804,131.0,185.0,68.72623975928525,0.0,0,0.0,,,,,,
152.0119030752,2.2354654332879225,130.0,185.0,67.63528934965666,0.0,0,0.0,,,,,,
153.0119030752,2.250370825600399,129.0,185.0,66.54433894002807,0.0,0,0.0,,,,,,
154.0119030752,2.2655226016069068,128.0,185.0,65.45338853039948,0.0,0,0.0,,,,,,
155.0119030752,2.2809290435762226,127.0,185.0,64.36243812077089,0.0,0,0.0,,,,,,
156.0119030752,2.296598858533054,126.0,185.0,63.271487711142306,0.0,0,0.0,,,,,,
157.0119030752,2.3125412078079917,125.0,185.0,62.18053730151372,0.0,0,0.0,,,,,,
158.0119030752,2.328765739202656,124.0,185.0,61.08958689188514,0.0,0,0.0,,,,,,
159.0119030752,2.3452826220527774,123.0,185.0,59.99863648225656,0.0,0,0.0,,,,,,
160.0119030752,2.3621025855082687,122.0,185.0,58.907686072627975,0.0,0,0.0,,,,,,
161.0119030752,2.3792369603911006,121.0,185.0,57.81673566299939,0.0,0,0.0,,,,,,
162.0119030752,2.3966977250398918,120.0,185.0,56.72578525337081,0.0,0,0.0,,,,,,
163.0119030752,2.41449755560572,119.0,185.0,55.634834843742226,0.0,0,0.0,,,,,,
164.0119030752,2.4326498813280426,118.0,185.0,54.54388443411364,0.0,0,0.0,,,,,,
165.0119030752,2.4511689453944228,117.0,185.0,53.45293402448506,0.0,0,0.0,,,,,,
166.0119030752,2.4700698720748817,116.0,185.0,52.36198361485648,0.0,0,0.0,,,,,,
167.0119030752,2.4893687409235246,115.0,185.0,51.271033205227894,0.0,0,0.0,,,,,,
168.0119030752,2.5090826689594046,114.0,185.0,50.18008279559931,0.0,0,0.0,,,,,,
169.0119030752,2.529229901878914,113.0,185.0,49.08913238597073,0.0,0,0.0,,,,,,
170.0119030752,2.5498299155175275,112.0,185.0,47.998181976342146,0.0,0,0.0,,,,,,
171.0119030752,2.5709035289747058,111.0,185.0,46.90723156671356,0.0,0,0.0,,,,,,
172.0119030752,2.592473031048657,110.0,185.0,45.81628115708498,0.0,0,0.0,,,,,,
173.0119030752,2.614562321905425,109.0,185.0,44.7253307474564,0.0,0,-0.0,,,,,,
174.0119030752,2.6371970722394273,108.0,185.0,43.634380337827814,0.0,0,-0.0,,,,,,
175.0119030752,2.660404902582599,107.0,185.0,42.54342992819923,0.0,0,-0.0,,,,,,
176.0119030752,2.684215585902451,106.0,185.0,41.45247951857065,0.0,0,-0.0,,,,,,
177.0119030752,2.7086612772156062,105.0,185.0,40.361529108942065,0.0,0,-0.0,,,,,,
178.0119030752,2.7337767746581174,104.0,185.0,39.27057869931348,0.0,0,-0.0,,,,,,
179.0119030752,2.7595998173297023,103.0,185.0,38.1796282896849,0.0,0,-0.0,,,,,,
180.0119030752,2.7861714263079844,102.0,185.0,37.088677880056316,0.0,0,-0.0,,,,,,
181.0119030752,2.813536296565443,101.0,185.0,35.99772747042773,0.0,0,-0.0,,,,,,
182.0119030752,2.841743249187461,100.0,185.0,34.90677706079915,0.0,0,-0.0,,,,,,
183.0119030752,2.8708457553786175,99.0,185.0,33.81582665117057,0.0,0,-0.0,,,,,,
184.0119030752,2.900902546381032,98.0,185.0,32.724876241541985,0.0,0,-0.0,,,,,,
185.0119030752,2.9319783267803827,97.0,185.0,31.6339258319134,0.0,0,-0.0,,,,,,
186.0119030752,2.9641446129679716,96.0,185.0,30.54297542228481,0.0,0,-0.0,,,,,,
187.0119030752,2.997480724068909,95.0,185.0,29.452025012656225,0.0,0,-0.0,,,,,,
188.0119030752,3.0320749598614047,94.0,185.0,28.36107460302764,0.0,0,-0.0,,,,,,
189.0119030752,3.068026009690812,93.0,185.0,27.270124193399052,0.0,0,-0.0,,,,,,
190.0119030752,3.1054446489562757,92.0,185.0,26.179173783770466,0.0,0,-0.0,,,,,,
191.0119030752,3.144455796603184,91.0,185.0,25.08822337414188,0.0,0,-0.0,,,,,,
192.0119030752,3.1852010299039013,90.0,185.0,23.997272964513293,0.0,0,0.0,,,,,,
193.0119030752,3.2278416841619073,89.0,185.0,22.906322554884706,0.0,0,0.0,,,,,,
194.0119030752,3.2725627085642697,88.0,185.0,21.81537214525612,0.0,0,0.0,,,,,,
195.0119030752,3.319577510883252,87.0,185.0,20.724421735627534,0.0,0,0.0,,,,,,
196.0119030752,3.36913411179267,86.0,185.0,19.633471325998947,0.0,0,0.0,,,,,,
197.01190307481042,3.42152305787431,85.00000000039,184.9999990872249,18.542520916795368,0.0,0,0.0,,,,,,
198.011486460224,3.477063882718309,84.00168727047901,184.94961419174498,17.45202501302049,0.0,0,0.0,,,,,,
199.01106984563756,3.5361871196190604,83.01339204223065,184.79981604016638,16.361529109245637,0.0,0,0.0,,,,,,
200.01065323105112,3.5993867665821218,82.04498903487861,184.5521013661029,15.271033205470788,0.0,0,0.0,,,,,,
201.0102366164647,3.6672665684534924,81.10615421116087,184.20894525269424,14.180537301695907,0.0,0,0.0,,,,,,
202.00982000187827,3.740575125372939,80.20626809829851,183.77377640239322,13.090041397921057,0.0,0,0.0,,,,,,
203.00940338729185,3.8202548173718855,79.35432206086841,183.2509428785044,12.0,0.0,0,0.0,,,,,,
204.0089867727054,3.9035534328230153,78.55882846206069,182.64566866077266,12.0,0.0,0,0.0,,,,,,
205.008570158119,3.9868520482741476,77.82773561095938,181.9640014491045,12.0,0.0,0,0.0,,,,,,
206.00815354353256,4.070150663725277,77.16834834566555,181.21275223694974,12.0,0.0,0,0.0,,,,,,
207.00773692894612,4.1534492791764075,76.58725504576955,180.39942725810621,12.0,0.0,0,-0.0,,,,,,
208.0073203143597,4.236747894627539,76.09026180344004,179.53215298691302,12.0,0.0,0,-0.0,,,,,,
209.0073203143597,4.3200812279608725,75.74851874035333,178.5923595634246,12.0,0.0,0,-0.0,,,,,,
210.0073203143597,4.4034145612942055,75.40677567726662,177.65256613993617,12.0,0.0,0,0.0,,,,,,
211.0073203143597,4.4867478946275385,75.06503261417991,176.71277271644774,12.0,0.0,0,0.0,,,,,,
212.0073203143597,4.570081227960872,74.7232895510932,175.77297929295932,12.0,0.0,0,0.0,,,,,,
213.0073203143597,4.653414561294205,74.38154648800649,174.8331858694709,12.0,0.0,0,0.0,,,,,,
213.9237134699409,4.729780657592638,74.0,174.0,12.0,0.0,0,0.0,,,,,,
