Distance (in),Time (s),X (in),Y (in),Velocity (in/s),Orientation (deg),Touch,Rotational Velocity (deg/s),Way X (in),Way Y (in),Way Velocity (in/s),Way Orientation (deg),Way Turn Radius (in),Touch this Point
0.0,0.0,282.0,129.60000000000002,12.0,0.0,0,0.0,282.0,129.60000000000002,12.0,0.0,3.0,0.0
1.0,0.07692307692307693,281.0,129.60000000000002,14.0,0.0,0,0.0,240.0,129.60000000000002,96.0,0.0,3.0,0.0
2.0,0.14358974358974358,280.0,129.60000000000002,16.0,0.0,0,0.0,140.0,129.60000000000002,96.0,0.0,20.0,0.0
3.0,0.2024132730015083,279.0,129.60000000000002,18.0,0.0,0,0.0,78.0,149.60000000000002,36.0,0.0,20.0,0.0
4.0,0.2550448519488767,278.0,129.60000000000002,20.0,0.0,0,0.0,75.0,187.6,12.0,0.0,3.0,0.0
5.0,0.30266389956792433,277.0,129.60000000000002,22.0,0.0,0,0.0,,,,,,
6.0,0.3461421604374896,276.0,129.60000000000002,24.0,0.0,0,0.0,,,,,,
7.0,0.38614216043748956,275.0,129.60000000000002,26.0,0.0,0,-0.0,,,,,,
8.0,0.4231791974745266,274.0,129.60000000000002,28.0,0.0,0,-0.0,,,,,,
9.0,0.45766195609521626,273.0,129.60000000000002,30.0,0.0,0,-0.0,,,,,,
10.0,0.4899200206113453,272.0,129.60000000000002,32.0,0.0,0,-0.0,,,,,,
11.0,0.5202230509143756,271.0,129.60000000000002,34.0,0.0,0,-0.0,,,,,,
12.0,0.5487944794858042,270.0,129.60000000000002,36.0,0.0,0,-0.0,,,,,,
13.0,0.5758215065128311,269.0,129.60000000000002,38.0,0.0,0,-0.0,,,,,,
14.0,0.6014625321538568,268.0,129.60000000000002,40.0,0.0,0,-0.0,,,,,,
15.0,0.6258527760562959,267.0,129.60000000000002,42.0,0.0,0,-0.0,,,,,,
16.0,0.6491085900097843,266.0,129.60000000000002,44.0,0.0,0,-0.0,,,,,,
17.0,0.6713308122320065,265.0,129.60000000000002,46.0,0.0,0,-0.0,,,,,,
18.0,0.6926074079766874,264.0,129.60000000000002,48.0,0.0,0,0.0,,,,,,
19.0,0.7130155712419936,263.0,129.60000000000002,50.0,0.0,0,0.0,,,,,,
20.0,0.7326234143792485,262.0,129.60000000000002,52.0,0.0,0,0.0,,,,,,
21.0,0.7514913389075504,261.0,129.60000000000002,54.0,0.0,0,0.0,,,,,,
22.0,0.7696731570893686,260.0,129.60000000000002,56.0,0.0,0,0.0,,,,,,
23.0,0.7872170167384913,259.0,129.60000000000002,58.0,0.0,0,0.0,,,,,,
24.0,0.8041661692808642,258.0,129.60000000000002,60.0,0.0,0,0.0,,,,,,
25.0,0.820559611903815,257.0,129.60000000000002,62.0,0.0,0,0.0,,,,,,
26.0,0.8364326277768308,256.0,129.60000000000002,64.0,0.0,0,0.0,,,,,,
27.0,0.8518172431614461,255.0,129.60000000000002,66.0,0.0,0,0.0,,,,,,
28.0,0.8667426162957745,254.0,129.60000000000002,68.0,0.0,0,0.0,,,,,,
29.0,0.8812353699189629,253.0,129.60000000000002,70.0,0.0,0,0.0,,,,,,
30.0,0.8953198769612164,252.0,129.60000000000002,72.0,0.0,0,0.0,,,,,,
31.0,0.9090185070982026,251.0,129.60000000000002,74.0,0.0,0,0.0,,,,,,
32.0,0.922351840431536,250.0,129.60000000000002,76.0,0.0,0,0.0,,,,,,
33.0,0.9353388534185489,249.0,129.60000000000002,78.0,0.0,0,0.0,,,,,,
34.0,0.9479970812666502,248.0,129.60000000000002,80.0,0.0,0,0.0,,,,,,
35.0,0.9603427602789958,247.0,129.60000000000002,82.0,0.0,0,0.0,,,,,,
36.0,0.9723909530500802,246.0,129.60000000000002,84.0,0.0,0,0.0,,,,,,
37.0,0.9841556589324331,245.0,129.60000000000002,86.0,0.0,0,0.0,,,,,,
38.0,0.9956499118059963,244.0,129.60000000000002,88.0,0.0,0,0.0,,,,,,
39.0,1.006885866862176,243.0,129.60000000000002,90.0,0.0,0,0.0,,,,,,
40.0,1.017874877851187,242.0,129.60000000000002,92.0,0.0,0,0.0,,,,,,
41.0,1.02862756602323,241.0,129.60000000000002,94.0,0.0,0,0.0,,,,,,
42.0,1.0391934809153882,240.0,129.60000000000002,95.28791499961525,0.0,0,0.0,,,,,,
43.0,1.0496489244806757,239.0,129.60000000000002,96.0,0.0,0,0.0,,,,,,
44.0,1.0600655911473424,238.0,129.60000000000002,96.0,0.0,0,0.0,,,,,,
45.0,1.0704822578140092,237.0,129.60000000000002,96.0,0.0,0,0.0,,,,,,
46.0,1.080898924480676,236.0,129.60000000000002,96.0,0.0,0,0.0,,,,,,
47.0,1.0913155911473427,235.0,129.60000000000002,96.0,0.0,0,0.0,,,,,,
48.0,1.1017322578140094,234.0,129.60000000000002,96.0,0.0,0,0.0,,,,,,
49.0,1.1121489244806761,233.0,129.60000000000002,96.0,0.0,0,0.0,,,,,,
50.0,1.122565591147343,232.0,129.60000000000002,96.0,0.0,0,0.0,,,,,,
51.0,1.1329822578140096,231.0,129.60000000000002,96.0,0.0,0,0.0,,,,,,
52.0,1.1433989244806764,230.0,129.60000000000002,96.0,0.0,0,0.0,,,,,,
53.0,1.1538155911473431,229.0,129.60000000000002,96.0,0.0,0,0.0,,,,,,
54.0,1.1642322578140099,228.0,129.60000000000002,96.0,0.0,0,0.0,,,,,,
55.0,1.1746489244806766,227.0,129.60000000000002,96.0,0.0,0,0.0,,,,,,
56.0,1.1850655911473433,226.0,129.60000000000002,96.0,0.0,0,0.0,,,,,,
57.0,1.19548225781401,225.0,129.60000000000002,96.0,0.0,0,0.0,,,,,,
58.0,1.2058989244806768,224.0,129.60000000000002,96.0,0.0,0,0.0,,,,,,
59.0,1.2163155911473436,223.0,129.60000000000002,96.0,0.0,0,0.0,,,,,,
60.0,1.2267322578140103,222.0,129.60000000000002,96.0,0.0,0,0.0,,,,,,
61.0,1.237148924480677,221.0,129.60000000000002,96.0,0.0,0,0.0,,,,,,
62.0,1.2475655911473438,220.0,129.60000000000002,96.0,0.0,0,0.0,,,,,,
63.0,1.2579822578140105,219.0,129.60000000000002,96.0,0.0,0,0.0,,,,,,
64.0,1.2683989244806773,218.0,129.60000000000002,96.0,0.0,0,0.0,,,,,,
65.0,1.278815591147344,217.0,129.60000000000002,96.0,0.0,0,0.0,,,,,,
66.0,1.2892322578140107,216.0,129.60000000000002,96.0,0.0,0,0.0,,,,,,
67.0,1.2996489244806775,215.0,129.60000000000002,96.0,0.0,0,0.0,,,,,,
68.0,1.3100655911473442,214.0,129.60000000000002,96.0,0.0,0,0.0,,,,,,
69.0,1.320482257814011,213.0,129.60000000000002,96.0,0.0,0,0.0,,,,,,
70.0,1.3308989244806777,212.0,129.60000000000002,96.0,0.0,0,0.0,,,,,,
71.0,1.3413155911473444,211.0,129.60000000000002,96.0,0.0,0,0.0,,,,,,
72.0,1.3517322578140112,210.0,129.60000000000002,96.0,0.0,0,0.0,,,,,,
73.0,1.362148924480678,209.0,129.60000000000002,96.0,0.0,0,0.0,,,,,,
74.0,1.3725655911473447,208.0,129.60000000000002,96.0,0.0,0,0.0,,,,,,
75.0,1.3829822578140114,207.0,129.60000000000002,96.0,0.0,0,0.0,,,,,,
76.0,1.3933989244806781,206.0,129.60000000000002,96.0,0.0,0,-0.0,,,,,,
77.0,1.4038155911473449,205.0,129.60000000000002,96.0,0.0,0,-0.0,,,,,,
78.0,1.4142322578140116,204.0,129.60000000000002,96.0,0.0,0,-0.0,,,,,,
79.0,1.4246489244806784,203.0,129.60000000000002,96.0,0.0,0,-0.0,,,,,,
80.0,1.435065591147345,202.0,129.60000000000002,96.0,0.0,0,-0.0,,,,,,
81.0,1.4454822578140119,201.0,129.60000000000002,96.0,0.0,0,-0.0,,,,,,
82.0,1.4558989244806786,200.0,129.60000000000002,96.0,0.0,0,-0.0,,,,,,
83.0,1.4663155911473453,199.0,129.60000000000002,96.0,0.0,0,-0.0,,,,,,
84.0,1.476732257814012,198.0,129.60000000000002,96.0,0.0,0,-0.0,,,,,,
85.0,1.4871489244806788,197.0,129.60000000000002,96.0,0.0,0,-0.0,,,,,,
86.0,1.4975655911473456,196.0,129.60000000000002,96.0,0.0,0,-0.0,,,,,,
87.0,1.5079822578140123,195.0,129.60000000000002,96.0,0.0,0,-0.0,,,,,,
88.0,1.518398924480679,194.0,129.60000000000002,96.0,0.0,0,-0.0,,,,,,
89.0,1.5288155911473458,193.0,129.60000000000002,96.0,0.0,0,-0.0,,,,,,
90.0,1.5392322578140125,192.0,129.60000000000002,96.0,0.0,0,-0.0,,,,,,
91.0,1.5496489244806793,191.0,129.60000000000002,96.0,0.0,0,-0.0,,,,,,
92.0,1.560065591147346,190.0,129.60000000000002,96.0,0.0,0,-0.0,,,,,,
93.0,1.5704822578140127,189.0,129.60000000000002,96.0,0.0,0,-0.0,,,,,,
94.0,1.5808989244806795,188.0,129.60000000000002,96.0,0.0,0,-0.0,,,,,,
95.0,1.5913155911473462,187.0,129.60000000000002,96.0,0.0,0,-0.0,,,,,,
96.0,1.601732257814013,186.0,129.60000000000002,96.0,0.0,0,-0.0,,,,,,
97.0,1.6121489244806797,185.0,129.60000000000002,96.0,0.0,0,-0.0,,,,,,
98.0,1.6225655911473464,184.0,129.60000000000002,96.0,0.0,0,-0.0,,,,,,
99.0,1.6329822578140132,183.0,129.60000000000002,96.0,0.0,0,-0.0,,,,,,
100.0,1.64339892448068,182.0,129.60000000000002,96.0,0.0,0,-0.0,,,,,,
101.0,1.6538155911473467,181.0,129.60000000000002,96.0,0.0,0,-0.0,,,,,,
102.0,1.6642322578140134,180.0,129.60000000000002,96.0,0.0,0,-0.0,,,,,,
103.0,1.6746489244806801,179.0,129.60000000000002,96.0,0.0,0,-0.0,,,,,,
104.0,1.6850655911473469,178.0,129.60000000000002,96.0,0.0,0,-0.0,,,,,,
105.0,1.6954822578140136,177.0,129.60000000000002,96.0,0.0,0,-0.0,,,,,,
106.0,1.7058989244806804,176.0,129.60000000000002,96.0,0.0,0,-0.0,,,,,,
107.0,1.716315591147347,175.0,129.60000000000002,96.0,0.0,0,0.0,,,,,,
108.0,1.7267322578140138,174.0,129.60000000000002,96.0,0.0,0,0.0,,,,,,
109.0,1.7371489244806806,173.0,129.60000000000002,96.0,0.0,0,0.0,,,,,,
110.0,1.7475655911473473,172.0,129.60000000000002,96.0,0.0,0,0.0,,,,,,
111.0,1.757982257814014,171.0,129.60000000000002,96.0,0.0,0,0.0,,,,,,
112.0,1.7683989244806808,170.0,129.60000000000002,96.0,0.0,0,0.0,,,,,,
113.0,1.7788155911473476,169.0,129.60000000000002,96.0,0.0,0,0.0,,,,,,
114.0,1.7892322578140143,168.0,129.60000000000002,96.0,0.0,0,0.0,,,,,,
115.0,1.799648924480681,167.0,129.60000000000002,96.0,0.0,0,0.0,,,,,,
116.0,1.8100655911473478,166.0,129.60000000000002,96.0,0.0,0,0.0,,,,,,
117.0,1.8204822578140145,165.0,129.60000000000002,96.0,0.0,0,0.0,,,,,,
118.0,1.8308989244806813,164.0,129.60000000000002,96.0,0.0,0,0.0,,,,,,
119.0,1.841315591147348,163.0,129.60000000000002,96.0,0.0,0,0.0,,,,,,
120.0,1.8517322578140147,162.0,129.60000000000002,96.0,0.0,0,0.0,,,,,,
121.0,1.8621489244806815,161.0,129.60000000000002,96.0,0.0,0,0.0,,,,,,
122.0,1.8725655911473482,160.0,129.60000000000002,96.0,0.0,0,0.0,,,,,,
123.0,1.882982257814015,159.0,129.60000000000002,96.0,0.0,0,0.0,,,,,,
124.0,1.8933989244806817,158.0,129.60000000000002,96.0,0.0,0,0.0,,,,,,
125.0,1.9038155911473484,157.0,129.60000000000002,96.0,0.0,0,0.0,,,,,,
126.0,1.9142322578140152,156.0,129.60000000000002,96.0,0.0,0,0.0,,,,,,
127.0,1.924648924480682,155.0,129.60000000000002,96.0,0.0,0,0.0,,,,,,
128.0,1.9350655911473487,154.0,129.60000000000002,96.0,0.0,0,0.0,,,,,,
129.0,1.9454822578140154,153.0,129.60000000000002,96.0,0.0,0,0.0,,,,,,
130.0,1.9558989244806821,152.0,129.60000000000002,96.0,0.0,0,0.0,,,,,,
131.0,1.9663155911473489,151.0,129.60000000000002,96.0,0.0,0,0.0,,,,,,
132.0,1.9767322578140156,150.0,129.60000000000002,96.0,0.0,0,0.0,,,,,,
133.0,1.9871489244806824,149.0,129.60000000000002,96.0,0.0,0,0.0,,,,,,
134.0,1.997565591147349,148.0,129.60000000000002,96.0,0.0,0,0.0,,,,,,
135.0,2.0079822578140156,147.0,129.60000000000002,96.0,0.0,0,0.0,,,,,,
136.0,2.018398924480682,146.0,129.60000000000002,96.0,0.0,0,0.0,,,,,,
137.0,2.0288155911473487,145.0,129.60000000000002,96.0,0.0,0,0.0,,,,,,
138.0,2.039232257814015,144.0,129.60000000000002,96.0,0.0,0,0.0,,,,,,
138.99999625273387,2.0496488854466595,143.00000388920725,129.6005328049779,96.0,0.0,0,0.0,,,,,,
139.99989208932234,2.0600644670777895,142.00062957744285,129.6328231907361,96.0,0.0,0,0.0,,,,,,
140.99978792591082,2.0704800487089194,141.00411806999173,129.71502111981283,96.0,0.0,0,0.0,,,,,,
141.9996837624993,2.0809467323985755,140.01296012664938,129.84692114019322,95.06258796693211,0.0,0,0.0,,,,,,
142.9995795990878,2.091517139447869,139.02963312608904,130.0281935705185,94.1251759338642,0.0,0,0.0,,,,,,
143.9994754356763,2.102193346200815,138.05659487370536,130.25838532411777,93.18776390079631,0.0,0,0.0,,,,,,
144.9994754356763,2.1129786210885517,137.10488625594482,130.56538810404052,92.25025421352107,0.0,0,0.0,,,,,,
145.9994754356763,2.1238740630552377,136.15317763818427,130.87239088396328,91.31274452624584,0.0,0,0.0,,,,,,
146.9994754356763,2.1348819459486883,135.20146902042373,131.17939366388603,90.3752348389706,0.0,0,0.0,,,,,,
147.9994754356763,2.146004614749112,134.24976040266318,131.4863964438088,89.43772515169536,0.0,0,0.0,,,,,,
148.9994754356763,2.157244488567337,133.29805178490264,131.79339922373154,88.50021546442012,0.0,0,0.0,,,,,,
149.9994754356763,2.1686040638026927,132.3463431671421,132.1004020036543,87.56270577714488,0.0,0,0.0,,,,,,
150.9994754356763,2.180085917470848,131.39463454938155,132.40740478357705,86.62519608986965,0.0,0,0.0,,,,,,
151.9994754356763,2.1916927107127138,130.442925931621,132.7144075634998,85.68768640259441,0.0,0,0.0,,,,,,
152.9994754356763,2.2034271924963558,129.49121731386046,133.02141034342256,84.75017671531917,0.0,0,0.0,,,,,,
153.9994754356763,2.2152922035247946,128.53950869609992,133.3284131233453,83.81266702804393,0.0,0,0.0,,,,,,
154.9994754356763,2.2272906803635997,127.58780007833937,133.63541590326807,82.8751573407687,0.0,0,0.0,,,,,,
155.9994754356763,2.2394256598032714,126.63609146057883,133.94241868319082,81.93764765349346,0.0,0,0.0,,,,,,
156.9994754356763,2.2517002834726263,125.68438284281828,134.24942146311358,81.00013796621822,0.0,0,0.0,,,,,,
157.9994754356763,2.2641178027207167,124.73267422505774,134.55642424303633,80.06262827894298,0.0,0,0.0,,,,,,
158.9994754356763,2.2766815837862633,123.78096560729719,134.8634270229591,79.12511859166774,0.0,0,0.0,,,,,,
159.9994754356763,2.28939511327516,122.82925698953665,135.17042980288184,78.1876089043925,0.0,0,0.0,,,,,,
160.9994754356763,2.302262003968354,121.8775483717761,135.4774325828046,77.25009921711727,0.0,0,0.0,,,,,,
161.9994754356763,2.315286000984293,120.92583975401556,135.78443536272735,76.31258952984203,0.0,0,0.0,,,,,,
162.9994754356763,2.328470988322254,119.97413113625501,136.0914381426501,75.37507984256679,0.0,0,0.0,,,,,,
163.9994754356763,2.341820995815137,119.02242251849447,136.39844092257286,74.43757015529155,0.0,0,0.0,,,,,,
164.9994754356763,2.355340206522875,118.07071390073392,136.70544370249561,73.50006046801631,0.0,0,0.0,,,,,,
165.9994754356763,2.369032964600394,117.11900528297338,137.01244648241837,72.56255078074108,0.0,0,0.0,,,,,,
166.9994754356763,2.3829037836771483,116.16729666521283,137.31944926234112,71.62504109346584,0.0,0,0.0,,,,,,
167.9994754356763,2.396957355788669,115.21558804745229,137.62645204226388,70.6875314061906,0.0,0,0.0,,,,,,
168.9994754356763,2.4111985609043574,114.26387942969174,137.93345482218663,69.75002171891536,0.0,0,0.0,,,,,,
169.9994754356763,2.4256324770999176,113.3121708119312,138.2404576021094,68.81251203164013,0.0,0,0.0,,,,,,
170.9994754356763,2.4402643914275006,112.36046219417065,138.54746038203214,67.87500234436489,0.0,0,-0.0,,,,,,
171.9994754356763,2.4550998115417744,111.4087535764101,138.8544631619549,66.93749265708965,0.0,0,-0.0,,,,,,
172.9994754356763,2.4701444781458934,110.45704495864956,139.16146594187765,65.99998296981441,0.0,0,-0.0,,,,,,
173.9994754356763,2.4854043783277513,109.50533634088902,139.4684687218004,65.06247328253917,0.0,0,-0.0,,,,,,
174.9994754356763,2.5008857598640364,108.55362772312847,139.77547150172316,64.12496359526394,0.0,0,-0.0,,,,,,
175.9994754356763,2.5165951465776217,107.60191910536793,140.08247428164591,63.18745390798869,0.0,0,-0.0,,,,,,
176.9994754356763,2.5325393548427515,106.65021048760738,140.38947706156867,62.249944220713445,0.0,0,-0.0,,,,,,
177.9994754356763,2.5487255113425333,105.69850186984684,140.69647984149142,61.3124345334382,0.0,0,-0.0,,,,,,
178.9994754356763,2.565161072194512,104.74679325208629,141.00348262141418,60.374924846162955,0.0,0,-0.0,,,,,,
179.9994754356763,2.581853843572783,103.79508463432575,141.31048540133693,59.43741515888771,0.0,0,-0.0,,,,,,
180.9994754356763,2.5988120039694063,102.8433760165652,141.6174881812597,58.499905471612465,0.0,0,-0.0,,,,,,
181.9994754356763,2.6160441282540132,101.89166739880466,141.92449096118244,57.56239578433722,0.0,0,-0.0,,,,,,
182.9994754356763,2.6335592137087778,100.93995878104411,142.2314937411052,56.624886097061975,0.0,0,-0.0,,,,,,
183.9994754356763,2.6513667082366172,99.98825016328357,142.53849652102795,55.68737640978673,0.0,0,-0.0,,,,,,
184.9994754356763,2.669476540964007,99.03654154552302,142.8454993009507,54.749866722511484,0.0,0,-0.0,,,,,,
185.9994754356763,2.6878991554865586,98.08483292776248,143.15250208087346,53.81235703523624,0.0,0,-0.0,,,,,,
186.9994754356763,2.706645546036042,97.13312431000193,143.45950486079622,52.874847347960994,0.0,0,-0.0,,,,,,
187.9994754356763,2.7257272968824253,96.18141569224139,143.76650764071897,51.93733766068575,0.0,0,-0.0,,,,,,
188.9994754356763,2.7451566253244892,95.22970707448084,144.07351042064172,50.999827973410504,0.0,0,-0.0,,,,,,
189.9994754356763,2.7649464286684995,94.2779984567203,144.38051320056448,50.06231828613526,0.0,0,0.0,,,,,,
190.9994754356763,2.7851103356472646,93.32628983895975,144.68751598048723,49.124808598860014,0.0,0,0.0,,,,,,
191.9994754356763,2.8056627627929345,92.37458122119921,144.99451876041,48.18729891158477,0.0,0,0.0,,,,,,
192.9994754356763,2.8266189763474823,91.42287260343866,145.30152154033274,47.249789224309524,0.0,0,0.0,,,,,,
194.00027241228116,2.8480123675398663,90.46225012700836,145.58223321831994,46.31153236374668,0.0,0,0.0,,,,,,
195.00016824886964,2.8698237591197677,89.52362217252909,145.9268623626143,45.37412033067879,0.0,0,0.0,,,,,,
196.00006408545815,2.892090469089161,88.60339153691721,146.31797265563708,44.436708297610885,0.0,0,0.0,,,,,,
196.99995992204663,2.91483191251878,87.70385831751493,146.75458652534203,43.499296264543,0.0,0,0.0,,,,,,
197.9998557586351,2.9380687733386184,86.82727087890288,147.23561266443903,42.56188423147511,0.0,0,0.0,,,,,,
198.99975159522361,2.9618231173675422,85.97582023315968,147.75984875809388,41.624472198407204,0.0,0,0.0,,,,,,
199.9996474318121,2.9861185182153798,85.15163456347278,148.32598448908934,40.68706016533932,0.0,0,0.0,,,,,,
200.99954326840057,3.0109801978576876,84.3567739047888,148.9326048129357,39.74964813227143,0.0,0,0.0,,,,,,
201.99943910498905,3.036435183984099,83.593224994799,149.57819349474508,38.812236099203545,0.0,0,0.0,,,,,,
202.99933494157756,3.0625124865807223,82.86289630812978,150.26113689902908,37.87482406613564,0.0,0,0.0,,,,,,
203.99923077816607,3.0892432966386547,82.16761328614999,150.97972802294703,36.93741203306773,0.0,0,0.0,,,,,,
204.99912661475454,3.1166612104010776,81.50911377431817,151.7321707629241,36.0,0.0,0,0.0,,,,,,
205.99902245134302,3.1446952790705187,80.889043678474,152.51658440397506,35.33433597374531,0.0,0,0.0,,,,,,
206.9989182879315,3.1732625040021536,80.30895285093081,153.33100832051193,34.66867194749062,0.0,0,0.0,,,,,,
207.99881412451998,3.2023835576446418,79.770291216652,154.17340687688716,34.003007921235934,0.0,0,0.0,,,,,,
208.9987099611085,3.232080338538136,79.27440514919373,155.04167451542253,33.337343894981224,0.0,0,0.0,,,,,,
209.99860579769697,3.262376070229845,78.82253410547214,155.9336410192067,32.671679868726535,0.0,0,0.0,,,,,,
210.99850163428545,3.2932954103700154,78.41580752776667,156.8470769365074,32.00601584247185,0.0,0,0.0,,,,,,
211.99839747087395,3.3248645712720566,78.05524202070247,157.77969915323962,31.340351816217137,0.0,0,0.0,,,,,,
212.99829330746246,3.3571114534134936,77.7417388102683,158.7291765995618,30.674687789962427,0.0,0,0.0,,,,,,
213.99818914405094,3.3900657935811727,77.47608149122095,159.6931360763364,30.009023763707734,0.0,0,0.0,,,,,,
214.99808498063945,3.4237593296316313,77.25893406850636,160.6691681868919,29.343359737453024,0.0,0,0.0,,,,,,
215.99798081722793,3.4582259841540877,77.09083929759316,161.65483335925958,28.677695711198332,0.0,0,0.0,,,,,,
216.99798081722793,3.4935057877153968,77.01213681217315,162.65173150791304,28.011962339884523,0.0,0,0.0,,,,,,
217.99798081722793,3.5296341357110173,76.93343432675314,163.6486296565665,27.346228968570713,0.0,0,0.0,,,,,,
218.99798081722793,3.5666528522086858,76.85473184133313,164.64552780521996,26.680495597256904,0.0,0,0.0,,,,,,
219.99798081722793,3.604606931619594,76.77602935591312,165.6424259538734,26.014762225943095,0.0,0,0.0,,,,,,
220.99798081722793,3.6435448674285507,76.69732687049311,166.63932410252687,25.349028854629285,0.0,0,0.0,,,,,,
221.99798081722793,3.683519024665199,76.6186243850731,167.63622225118033,24.683295483315476,0.0,0,0.0,,,,,,
222.99798081722793,3.7245860632914822,76.5399218996531,168.63312039983379,24.017562112001666,0.0,0,-0.0,,,,,,
223.99798081722793,3.7668074210923383,76.46121941423308,169.63001854848724,23.351828740687857,0.0,0,-0.0,,,,,,
224.99798081722793,3.810249866395012,76.38251692881308,170.6269166971407,22.686095369374048,0.0,0,-0.0,,,,,,
225.99798081722793,3.8549861330949735,76.30381444339307,171.62381484579416,22.02036199806024,0.0,0,-0.0,,,,,,
226.99798081722793,3.901095653147669,76.22511195797306,172.62071299444762,21.35462862674643,0.0,0,-0.0,,,,,,
227.99798081722793,3.948665405045838,76.14640947255305,173.61761114310107,20.68889525543262,0.0,0,-0.0,,,,,,
228.99798081722793,3.997790901041888,76.06770698713304,174.61450929175453,20.02316188411881,0.0,0,-0.0,,,,,,
