Distance (in),Time (s),X (in),Y (in),Velocity (in/s),Orientation (deg),Touch,Rotational Velocity (deg/s),Way X (in),Way Y (in),Way Velocity (in/s),Way Orientation (deg),Way Turn Radius (in),Touch this Point
0.0,0.0,74.0,40.0,12.0,0.0,0,0.0,74.0,40.0,12.0,0.0,3.0,0.0
1.0000000000000064,0.0713130875230833,74.87157553712456,39.50973876036744,16.045343000366294,0.0,0,0.0,90.0,31.0,96.0,0.0,20.0,0.0
2.000000000000013,0.12665951199986225,75.74315107424911,39.01947752073488,20.09068600073259,0.0,0,0.0,200.0,31.0,96.0,0.0,20.0,0.0
3.0000000000000195,0.17188104834768259,76.61472661137367,38.52921628110232,24.136029001098887,0.0,0,0.0,246.0,60.0,36.0,45.0,10.0,0
4.000000000000026,0.21010924702869108,77.48630214849823,38.03895504146976,28.18137200146518,0.0,0,-0.0,265.0,75.0,12.0,45.0,3.0,0
5.000000000000032,0.24321739693403183,78.35787768562278,37.5486938018372,32.22671500183148,0.0,0,-0.0,,,,,,
6.000000000000038,0.27241500022369025,79.22945322274734,37.05843256220464,36.272058002197774,0.0,0,-0.0,,,,,,
7.000000000000044,0.29852825426659535,80.1010287598719,36.568171322572084,40.31740100256407,0.0,0,-0.0,,,,,,
8.000000000000052,0.3221465416451803,80.97260429699645,36.077910082939525,44.36274400293037,0.0,0,-0.0,,,,,,
9.000000000000059,0.34370504207367997,81.84417983412101,35.587648843306965,48.40808700329667,0.0,0,0.0,,,,,,
10.000000000000066,0.36353421041607176,82.71575537124556,35.097387603674406,52.45343000366297,0.0,0,0.0,,,,,,
11.000000000000073,0.3818908837534508,83.58733090837012,34.60712636404185,56.498773004029275,0.0,0,0.0,,,,,,
12.00000000000008,0.39897863694327557,84.45890644549468,34.11686512440929,60.544116004395576,0.0,0,0.0,,,,,,
13.000000000000087,0.4149615575930984,85.33048198261923,33.62660388477673,64.58945900476188,0.0,0,0.0,,,,,,
13.999333400747098,0.4299641347710994,86.21082162430199,33.15366693218107,68.63210538250601,0.0,0,0.0,,,,,,
14.999229237335594,0.4441160274292246,87.11404942471643,32.72474826321748,72.67702700614467,0.0,0,0.0,,,,,,
15.999125073924095,0.4575016056412889,88.03758542433582,32.341508206028735,76.72194862978334,0.0,0,0.0,,,,,,
16.99902091051258,0.47019959707558895,88.97912126412933,32.00490466117024,80.76687025342196,0.0,0,0.0,,,,,,
17.998916747101084,0.4822771899697814,89.93630359483991,31.715778962204393,84.81179187706064,0.0,0,0.0,,,,,,
18.998812583689578,0.4939766215124152,90.90673995913167,31.474853772804867,86.11887820631584,0.0,0,0.0,,,,,,
19.998708420278067,0.5054998200216977,91.88800477148737,31.28273128047374,87.42596453557104,0.0,0,0.0,,,,,,
20.998604256866557,0.5168520160397759,92.87764538090897,31.13989169138639,88.73305086482624,0.0,0,0.0,,,,,,
21.99850009345505,0.5280382106525723,93.87318820126778,31.046692030126103,90.04013719408144,0.0,0,0.0,,,,,,
22.99850009345505,0.5390643289593879,94.87318820126778,31.046692030126103,91.34735968809122,0.0,0,0.0,,,,,,
23.99850009345505,0.5499337794644861,95.87318820126778,31.046692030126103,92.654582182101,0.0,0,0.0,,,,,,
24.99850009345505,0.5606509519147252,96.87318820126778,31.046692030126103,93.96180467611077,0.0,0,0.0,,,,,,
25.99850009345505,0.5712200541085221,97.87318820126778,31.046692030126103,95.26902717012055,0.0,0,0.0,,,,,,
26.99850009345505,0.5816765301495757,98.87318820126778,31.046692030126103,96.0,0.0,0,0.0,,,,,,
27.99850009345505,0.5920931968162423,99.87318820126778,31.046692030126103,96.0,0.0,0,0.0,,,,,,
28.99850009345505,0.6025098634829089,100.87318820126778,31.046692030126103,96.0,0.0,0,0.0,,,,,,
29.99850009345505,0.6129265301495755,101.87318820126778,31.046692030126103,96.0,0.0,0,0.0,,,,,,
30.99850009345505,0.6233431968162422,102.87318820126778,31.046692030126103,96.0,0.0,0,0.0,,,,,,
31.99850009345505,0.6337598634829088,103.87318820126778,31.046692030126103,96.0,0.0,0,0.0,,,,,,
32.99850009345505,0.6441765301495754,104.87318820126778,31.046692030126103,96.0,0.0,0,0.0,,,,,,
33.99850009345505,0.6545931968162421,105.87318820126778,31.046692030126103,96.0,0.0,0,0.0,,,,,,
34.99850009345505,0.6650098634829087,106.87318820126778,31.046692030126103,96.0,0.0,0,0.0,,,,,,
35.99850009345505,0.6754265301495753,107.87318820126778,31.046692030126103,96.0,0.0,0,0.0,,,,,,
36.99850009345505,0.685843196816242,108.87318820126778,31.046692030126103,96.0,0.0,0,0.0,,,,,,
37.99850009345505,0.6962598634829086,109.87318820126778,31.046692030126103,96.0,0.0,0,0.0,,,,,,
38.99850009345505,0.7066765301495752,110.87318820126778,31.046692030126103,96.0,0.0,0,0.0,,,,,,
39.99850009345505,0.7170931968162418,111.87318820126778,31.046692030126103,96.0,0.0,0,0.0,,,,,,
40.99850009345505,0.7275098634829085,112.87318820126778,31.046692030126103,96.0,0.0,0,0.0,,,,,,
41.99850009345505,0.7379265301495751,113.87318820126778,31.046692030126103,96.0,0.0,0,0.0,,,,,,
42.99850009345505,0.7483431968162417,114.87318820126778,31.046692030126103,96.0,0.0,0,0.0,,,,,,
43.99850009345505,0.7587598634829084,115.87318820126778,31.046692030126103,96.0,0.0,0,0.0,,,,,,
44.99850009345505,0.769176530149575,116.87318820126778,31.046692030126103,96.0,0.0,0,0.0,,,,,,
45.99850009345505,0.7795931968162416,117.87318820126778,31.046692030126103,96.0,0.0,0,0.0,,,,,,
46.99850009345505,0.7900098634829082,118.87318820126778,31.046692030126103,96.0,0.0,0,0.0,,,,,,
47.99850009345505,0.8004265301495749,119.87318820126778,31.046692030126103,96.0,0.0,0,0.0,,,,,,
48.99850009345505,0.8108431968162415,120.87318820126778,31.046692030126103,96.0,0.0,0,0.0,,,,,,
49.99850009345505,0.8212598634829081,121.87318820126778,31.046692030126103,96.0,0.0,0,0.0,,,,,,
50.99850009345505,0.8316765301495748,122.87318820126778,31.046692030126103,96.0,0.0,0,0.0,,,,,,
51.99850009345505,0.8420931968162414,123.87318820126778,31.046692030126103,96.0,0.0,0,0.0,,,,,,
52.99850009345505,0.852509863482908,124.87318820126778,31.046692030126103,96.0,0.0,0,0.0,,,,,,
53.99850009345505,0.8629265301495747,125.87318820126778,31.046692030126103,96.0,0.0,0,0.0,,,,,,
54.99850009345505,0.8733431968162413,126.87318820126778,31.046692030126103,96.0,0.0,0,0.0,,,,,,
55.99850009345505,0.8837598634829079,127.87318820126778,31.046692030126103,96.0,0.0,0,-0.0,,,,,,
56.998500093455064,0.8941765301495748,128.8731882012678,31.046692030126103,96.0,0.0,0,-0.0,,,,,,
57.998500093455064,0.9045931968162414,129.8731882012678,31.046692030126103,96.0,0.0,0,-0.0,,,,,,
58.998500093455064,0.915009863482908,130.8731882012678,31.046692030126103,96.0,0.0,0,-0.0,,,,,,
59.998500093455064,0.9254265301495747,131.8731882012678,31.046692030126103,96.0,0.0,0,-0.0,,,,,,
60.998500093455064,0.9358431968162413,132.8731882012678,31.046692030126103,96.0,0.0,0,-0.0,,,,,,
61.998500093455064,0.9462598634829079,133.8731882012678,31.046692030126103,96.0,0.0,0,-0.0,,,,,,
62.998500093455064,0.9566765301495745,134.8731882012678,31.046692030126103,96.0,0.0,0,-0.0,,,,,,
63.998500093455064,0.9670931968162412,135.8731882012678,31.046692030126103,96.0,0.0,0,-0.0,,,,,,
64.99850009345506,0.9775098634829078,136.8731882012678,31.046692030126103,96.0,0.0,0,-0.0,,,,,,
65.99850009345506,0.9879265301495744,137.8731882012678,31.046692030126103,96.0,0.0,0,-0.0,,,,,,
66.99850009345506,0.9983431968162411,138.8731882012678,31.046692030126103,96.0,0.0,0,-0.0,,,,,,
67.99850009345506,1.0087598634829078,139.8731882012678,31.046692030126103,96.0,0.0,0,-0.0,,,,,,
68.99850009345506,1.0191765301495745,140.8731882012678,31.046692030126103,96.0,0.0,0,-0.0,,,,,,
69.99850009345506,1.0295931968162413,141.8731882012678,31.046692030126103,96.0,0.0,0,-0.0,,,,,,
70.99850009345506,1.040009863482908,142.8731882012678,31.046692030126103,96.0,0.0,0,-0.0,,,,,,
71.99850009345506,1.0504265301495748,143.8731882012678,31.046692030126103,96.0,0.0,0,-0.0,,,,,,
72.99850009345506,1.0608431968162415,144.8731882012678,31.046692030126103,96.0,0.0,0,-0.0,,,,,,
73.99850009345506,1.0712598634829082,145.8731882012678,31.046692030126103,96.0,0.0,0,-0.0,,,,,,
74.99850009345506,1.081676530149575,146.8731882012678,31.046692030126103,96.0,0.0,0,-0.0,,,,,,
75.99850009345506,1.0920931968162417,147.8731882012678,31.046692030126103,96.0,0.0,0,-0.0,,,,,,
76.99850009345506,1.1025098634829085,148.8731882012678,31.046692030126103,96.0,0.0,0,-0.0,,,,,,
77.99850009345506,1.1129265301495752,149.8731882012678,31.046692030126103,96.0,0.0,0,-0.0,,,,,,
78.99850009345506,1.123343196816242,150.8731882012678,31.046692030126103,96.0,0.0,0,-0.0,,,,,,
79.99850009345506,1.1337598634829087,151.8731882012678,31.046692030126103,96.0,0.0,0,-0.0,,,,,,
80.99850009345506,1.1441765301495754,152.8731882012678,31.046692030126103,96.0,0.0,0,-0.0,,,,,,
81.99850009345506,1.1545931968162422,153.8731882012678,31.046692030126103,96.0,0.0,0,-0.0,,,,,,
82.99850009345506,1.165009863482909,154.8731882012678,31.046692030126103,96.0,0.0,0,-0.0,,,,,,
83.99850009345506,1.1754265301495757,155.8731882012678,31.046692030126103,96.0,0.0,0,-0.0,,,,,,
84.99850009345506,1.1858431968162424,156.8731882012678,31.046692030126103,96.0,0.0,0,-0.0,,,,,,
85.99850009345506,1.1962598634829091,157.8731882012678,31.046692030126103,96.0,0.0,0,-0.0,,,,,,
86.99850009345506,1.2066765301495759,158.8731882012678,31.046692030126103,96.0,0.0,0,-0.0,,,,,,
87.99850009345506,1.2170931968162426,159.8731882012678,31.046692030126103,96.0,0.0,0,-0.0,,,,,,
88.99850009345506,1.2275098634829094,160.8731882012678,31.046692030126103,96.0,0.0,0,0.0,,,,,,
89.99850009345506,1.237926530149576,161.8731882012678,31.046692030126103,96.0,0.0,0,0.0,,,,,,
90.99850009345506,1.2483431968162428,162.8731882012678,31.046692030126103,96.0,0.0,0,0.0,,,,,,
91.99850009345506,1.2587598634829096,163.8731882012678,31.046692030126103,96.0,0.0,0,0.0,,,,,,
92.99850009345506,1.2691765301495763,164.8731882012678,31.046692030126103,96.0,0.0,0,0.0,,,,,,
93.99850009345506,1.279593196816243,165.8731882012678,31.046692030126103,96.0,0.0,0,0.0,,,,,,
94.99850009345506,1.2900098634829098,166.8731882012678,31.046692030126103,96.0,0.0,0,0.0,,,,,,
95.99850009345506,1.3004265301495765,167.8731882012678,31.046692030126103,96.0,0.0,0,0.0,,,,,,
96.99850009345506,1.3108431968162433,168.8731882012678,31.046692030126103,96.0,0.0,0,0.0,,,,,,
97.99850009345506,1.32125986348291,169.8731882012678,31.046692030126103,96.0,0.0,0,0.0,,,,,,
98.99850009345506,1.3316765301495768,170.8731882012678,31.046692030126103,96.0,0.0,0,0.0,,,,,,
99.99850009345506,1.3420931968162435,171.8731882012678,31.046692030126103,96.0,0.0,0,0.0,,,,,,
100.99850009345506,1.3525098634829102,172.8731882012678,31.046692030126103,96.0,0.0,0,0.0,,,,,,
101.99850009345506,1.362926530149577,173.8731882012678,31.046692030126103,96.0,0.0,0,0.0,,,,,,
102.99850009345506,1.3733431968162437,174.8731882012678,31.046692030126103,96.0,0.0,0,0.0,,,,,,
103.99850009345506,1.3837598634829105,175.8731882012678,31.046692030126103,96.0,0.0,0,0.0,,,,,,
104.99850009345506,1.3941765301495772,176.8731882012678,31.046692030126103,96.0,0.0,0,0.0,,,,,,
105.99850009345506,1.404593196816244,177.8731882012678,31.046692030126103,96.0,0.0,0,0.0,,,,,,
106.99850009345506,1.4150098634829107,178.8731882012678,31.046692030126103,96.0,0.0,0,0.0,,,,,,
107.99850009345506,1.4254265301495774,179.8731882012678,31.046692030126103,96.0,0.0,0,0.0,,,,,,
108.99850009345506,1.4358431968162442,180.8731882012678,31.046692030126103,96.0,0.0,0,0.0,,,,,,
109.99850009345506,1.446259863482911,181.8731882012678,31.046692030126103,96.0,0.0,0,0.0,,,,,,
110.99850009345506,1.4566765301495777,182.8731882012678,31.046692030126103,96.0,0.0,0,0.0,,,,,,
111.99850009345506,1.4670931968162444,183.8731882012678,31.046692030126103,96.0,0.0,0,0.0,,,,,,
112.99850009345506,1.4775098634829111,184.8731882012678,31.046692030126103,96.0,0.0,0,0.0,,,,,,
113.99850009345506,1.4879265301495779,185.8731882012678,31.046692030126103,96.0,0.0,0,0.0,,,,,,
114.99850009345506,1.4983431968162446,186.8731882012678,31.046692030126103,96.0,0.0,0,0.0,,,,,,
115.99850009345506,1.5087598634829114,187.8731882012678,31.046692030126103,96.0,0.0,0,0.0,,,,,,
116.99850009345506,1.519176530149578,188.8731882012678,31.046692030126103,96.0,0.0,0,0.0,,,,,,
117.99850009345506,1.5295931968162448,189.8731882012678,31.046692030126103,96.0,0.0,0,0.0,,,,,,
118.99850009345506,1.5400098634829116,190.8731882012678,31.046692030126103,96.0,0.0,0,0.0,,,,,,
119.99850009345506,1.5504265301495783,191.8731882012678,31.046692030126103,96.0,0.0,0,0.0,,,,,,
120.99850009345506,1.560843196816245,192.8731882012678,31.046692030126103,96.0,0.0,0,0.0,,,,,,
121.99850009345506,1.5712598634829118,193.8731882012678,31.046692030126103,96.0,0.0,0,0.0,,,,,,
123.00032535272489,1.5816955432669724,194.87436480952636,31.010646930779053,96.0,0.0,0,0.0,,,,,,
124.0002211893134,1.5921111248981026,195.87260060779087,31.068240116923093,96.0,0.0,0,0.0,,,,,,
125.00011702590189,1.6025267065292328,196.866710411644,31.175652322514942,96.0,0.0,0,0.0,,,,,,
126.00001286249037,1.6129422881603628,197.85420946429846,31.332615072979817,96.0,0.0,0,0.0,,,,,,
126.99990869907887,1.623357869791493,198.83262953240225,31.538736043186173,96.0,0.0,0,0.0,,,,,,
127.99980453566735,1.633833840119273,199.79952507533636,31.79350003805422,94.89321662872025,0.027554426798737604,0,2.569250641125679,,,,,,
128.99970037225586,1.644432713258923,200.752479357793,32.09627028027531,93.78643325744048,0.08365637776003693,0,5.169001240617,,,,,,
129.99959620884434,1.6551574072057404,201.68911049035492,32.44629000192359,92.67964988616073,0.1693432286110623,0,7.799984637241244,,,,,,
130.99949204543282,1.6660109451233678,202.60707738297884,32.84268433598169,91.57286651488099,0.28571130682407475,0,10.462960403399226,,,,,,
131.99938788202132,1.6769964604591174,203.50408559650114,33.28446250305263,90.4660831436012,0.4338886593092565,0,13.15899871842224,,,,,,
132.99938788202132,1.688118368000238,204.3500111990968,33.81776342642815,89.35918447397981,0.6150614299278679,0,15.888641183216338,,,,,,
133.99938788202132,1.6993789020010308,205.19593680169245,34.35106434980367,88.25228580435842,0.8304710459641044,0,18.65273607331567,,,,,,
134.99938788202132,1.7107815618338924,206.0418624042881,34.88436527317919,87.14538713473704,1.0814174620018273,0,21.452164194594406,,,,,,
135.99938788202132,1.7223299810679156,206.88778800688377,35.41766619655471,86.03848846511565,1.3692626365402907,0,24.28784056813657,,,,,,
136.99938788202132,1.7340279344194454,207.73371360947942,35.95096711993023,84.93158979549426,1.6954342612383906,0,27.160716225618984,,,,,,
137.99938788202132,1.745879345158533,208.57963921207508,36.484268043305754,83.82469112587287,2.0614297646598048,0,30.071780124021792,,,,,,
138.99938788202132,1.7578882930076491,209.42556481467074,37.017568966681274,82.71779245625149,2.46882061460129,0,33.02206118931121,,,,,,
139.99938788202132,1.770059022572443,210.2714904172664,37.550869890056795,81.6108937866301,2.9192569455522843,0,36.01263049966271,,,,,,
140.99938788202132,1.7823959523481456,211.11741601986205,38.084170813432316,80.50399511700871,3.4144725405902103,0,39.044603619815035,,,,,,
141.99938788202132,1.7949036843494282,211.9633416224577,38.617471736807836,79.39709644738733,3.956290200100296,0,42.11914309928646,,,,,,
142.99938788202132,1.8075870144162394,212.80926722505336,39.15077266018336,78.29019777776594,4.546627533166478,0,45.23746114845229,,,,,,
143.99938788202132,1.8204509432533686,213.65519282764902,39.68407358355888,77.18329910814455,5.187503211361728,0,48.400822507898475,,,,,,
144.99938788202132,1.8335006882673277,214.50111843024467,40.2173745069344,76.07640043852317,5.881043729031067,0,51.610547528048215,,,,,,
145.99938788202132,1.8467416962706662,215.34704403284033,40.75067543030992,74.96950176890178,6.629490719076937,0,54.86801547782729,,,,,,
146.99938788202132,1.8601796571311362,216.192969635436,41.28397635368544,73.86260309928039,7.435208878803348,0,58.174668103118094,,,,,,
147.99938788202132,1.8738205184513042,217.03889523803164,41.81727727706096,72.755704429659,8.30069456664421,0,61.53201345797846,,,,,,
148.99938788202132,1.8876705013733937,217.8848208406273,42.35057820043648,71.64880576003762,9.228585137699191,0,64.94163003410577,,,,,,
149.99938788202132,1.9017361176144731,218.73074644322296,42.883879123812,70.54190709041623,10.221669094051844,0,68.40517121684769,,,,,,
150.99938788202132,1.9160241878487385,219.5766720458186,43.41718004718752,69.43500842079484,11.282897134994998,0,71.92437009924433,,,,,,
151.99938788202132,1.9305418615667755,220.42259764841427,43.95048097056304,68.32810975117346,12.415394202708187,0,75.501044689186,,,,,,
152.99938788202132,1.9452966385565333,221.26852325100992,44.48378189393856,67.22121108155207,13.584388327084282,0,76.64026372617846,,,,,,
153.99938788202132,1.9602963921675638,222.11444885360558,45.01708281731408,66.11431241193068,14.773458145065288,0,76.64026372617846,,,,,,
154.99938788202132,1.9755493945391722,222.96037445620124,45.550383740689604,65.0074137423093,15.983305244271229,0,76.64026372617846,,,,,,
155.99938788202132,1.9910643439948439,223.8063000587969,46.083684664065125,63.90051507268791,17.21466864408555,0,76.64026372617846,,,,,,
156.99938788202132,2.0068503948300616,224.65222566139255,46.616985587440645,62.79361640306652,18.468327506661428,0,76.64026372617846,,,,,,
157.99938788202132,2.0229171897489016,225.4981512639882,47.150286510816166,61.686717733445136,19.745104097885715,0,76.64026372617846,,,,,,
158.99938788202132,2.0392748952371678,226.34407686658386,47.683587434191686,60.57981906382375,21.045867026475563,0,76.64026372617846,,,,,,
159.99938788202132,2.0559342401969656,227.19000246917952,48.21688835756721,59.47292039420236,22.371534793159107,0,76.64026372617846,,,,,,
160.99938788202132,2.0729065582103434,228.03592807177517,48.75018928094273,58.366021724580975,23.72307968625762,0,76.64026372617846,,,,,,
161.99938788202132,2.090203833848902,228.88185367437083,49.28349020431825,57.25912305495959,25.10153206504706,0,76.64026372617846,,,,,,
162.99938788202132,2.1078387535032412,229.7277792769665,49.81679112769377,56.1522243853382,26.507985078161365,0,76.64026372617846,,,,,,
163.99938788202132,2.1258247612721393,230.57370487956214,50.35009205106929,55.045325715716814,27.943599871159154,0,76.64026372617846,,,,,,
164.99938788202132,2.1441761205281473,231.4196304821578,50.88339297444481,53.93842704609543,29.409611345396733,0,76.64026372617846,,,,,,
165.99938788202132,2.1629079818657724,232.26555608475346,51.41669389782033,52.83152837647404,30.90733453976049,0,76.64026372617846,,,,,,
166.99938788202132,2.18203645824309,233.1114816873491,51.94999482119585,51.72462970685265,32.438171717885304,0,76.64026372617846,,,,,,
167.99938788202132,2.2015787082504077,233.95740728994477,52.48329574457137,50.617731037231266,34.000845204269446,0,76.50440442810861,,,,,,
168.99938788202132,2.221553028584093,234.80333289254042,53.01659666794689,49.51083236760988,35.49619052535122,0,71.5529979039746,,,,,,
169.99938788202132,2.241978956974302,235.64925849513608,53.54989759132241,48.40393369798849,36.91856863899312,0,66.48705324365952,,,,,,
170.99938788202132,2.2628773870175625,236.49518409773174,54.08319851469793,47.297035028367105,38.26181132085411,0,61.30114586928049,,,,,,
171.99938788202132,2.2842706966056596,237.3411097003274,54.616499438073454,46.19013635874572,39.51915968381706,0,55.98945649038237,,,,,,
172.99938788202132,2.3061828919294687,238.18703530292305,55.149800361448975,45.08323768912433,40.683193957554145,0,50.54573185768598,,,,,,
173.99938788202132,2.3286397693806533,239.0329609055187,55.683101284824495,43.976339019502944,41.74575303832022,0,44.9632405146792,,,,,,
174.99938788202132,2.3516690980886534,239.87888650811436,56.216402208200016,42.86944034988156,42.69784201987496,0,39.23472276197439,,,,,,
175.99938788202132,2.3753008263316207,240.72481211071002,56.74970313157554,41.76254168026017,43.52952554749819,0,33.35233390174269,,,,,,
176.99938788202132,2.3995673156689046,241.57073771330568,57.28300405495106,40.655643010638784,44.229804379726055,0,27.307579649327714,,,,,,
177.99938788202132,2.424503607386102,242.41666331590133,57.81630497832658,39.5487443410174,44.78647197237483,0,21.09124237800956,,,,,,
178.99938788202132,2.4501477267559086,243.262588918497,58.3496059017021,38.44184567139601,45.185947184698094,0,14.693296590078184,,,,,,
