Distance (in),Time (s),X (in),Y (in),Velocity (in/s),Orientation (deg),Touch,Rotational Velocity (deg/s),Way X (in),Way Y (in),Way Velocity (in/s),Way Orientation (deg),Way Turn Radius (in),Touch this Point
0.0,0.0,282.0,40.0,12.0,0.0,0,0.0,282.0,40.0,12.0,0.0,3.0,0
1.000000000000019,0.07698259338791097,281.0100505063388,39.85857864376269,13.97989898732237,0.0,0,0.0,240.0,34.0,96.0,0.0,10.0,0
2.000000000000038,0.14378353671544936,280.0201010126776,39.71715728752538,15.95979797464474,0.0,0,0.0,130.0,31.0,96.0,0.0,10.0,0.0
3.0000000000000573,0.2027814658509662,279.03015151901644,39.57573593128807,17.939696961967112,0.0,0,0.0,74.0,40.0,12.0,0.0,3.0,0.0
4.000000000000076,0.2556086542690939,278.04020202535526,39.43431457505076,19.919595949289484,0.0,0,0.0,,,,,,
5.000000000000096,0.3034337015771957,277.05025253169407,39.292893218813454,21.899494936611855,0.0,0,0.0,,,,,,
6.0000000000001155,0.34712196159793446,276.0603030380329,39.151471862576145,23.879393923934227,0.0,0,0.0,,,,,,
7.000000000000135,0.3873321104228731,275.0703535443717,39.010050506338835,25.8592929112566,0.0,0,-0.0,,,,,,
8.000000000000155,0.4245771091799649,274.0804040507105,38.868629150101526,27.83919189857897,0.0,0,-0.0,,,,,,
9.000000000000174,0.459264233100665,273.0904545570493,38.72720779386422,29.819090885901343,0.0,0,-0.0,,,,,,
10.000000000000194,0.4917222385328426,272.10050506338814,38.58578643762691,31.798989873223714,0.0,0,-0.0,,,,,,
11.000000000000213,0.5222203278065068,271.11055556972696,38.4443650813896,33.77888886054608,0.0,0,-0.0,,,,,,
12.000000000000233,0.5509817143622648,270.12060607606577,38.30294372515229,35.758787847868454,0.0,0,-0.0,,,,,,
13.000000000000252,0.5781935336611533,269.1306565824046,38.16152236891498,37.738686835190826,0.0,0,-0.0,,,,,,
14.000000000000272,0.6040142207493543,268.1407070887434,38.02010101267767,39.7185858225132,0.0,0,-0.0,,,,,,
15.000000000000291,0.628579093747934,267.1507575950822,37.87867965644036,41.69848480983557,0.0,0,-0.0,,,,,,
16.00000000000031,0.6520046425251611,266.160808101421,37.73725830020305,43.678383797157935,0.0,0,-0.0,,,,,,
17.000000000000327,0.6743918669037692,265.17085860775984,37.59583694396574,45.6582827844803,0.0,0,-0.0,,,,,,
18.000000000000345,0.6958289064476791,264.18090911409865,37.454415587728434,47.638181771802664,0.0,0,0.0,,,,,,
19.000000000000362,0.7163931348886398,263.19095962043747,37.312994231491125,49.61808075912503,0.0,0,0.0,,,,,,
20.00000000000038,0.7361528448596668,262.2010101267763,37.171572875253815,51.59797974644739,0.0,0,0.0,,,,,,
21.000000000000398,0.755168615483267,261.2110606331151,37.030151519016506,53.57787873376976,0.0,0,0.0,,,,,,
22.000000000000416,0.7734944318568298,260.2211111394539,36.8887301627792,55.55777772109212,0.0,0,0.0,,,,,,
23.000000000000433,0.7911786085559619,259.2311616457927,36.74730880654189,57.53767670841449,0.0,0,0.0,,,,,,
24.00000000000045,0.80826455693438,258.24121215213154,36.60588745030458,59.51757569573685,0.0,0,0.0,,,,,,
25.00000000000047,0.8247914268876604,257.25126265847035,36.46446609406727,61.49747468305922,0.0,0,0.0,,,,,,
26.000000000000487,0.8407946469463384,256.26131316480917,36.32304473782996,63.47737367038158,0.0,0,0.0,,,,,,
27.000000000000476,0.8563063814332103,255.271363671148,36.18162338159265,65.4572726577039,0.0,0,0.0,,,,,,
28.000000000000465,0.8713559195120485,254.28141417748685,36.04020202535534,67.43717164502621,0.0,0,0.0,,,,,,
29.000000000000455,0.8859700079518237,253.2914646838257,35.89878066911803,69.41707063234853,0.0,0,0.0,,,,,,
30.000000000000444,0.9001731371030114,252.30151519016454,35.75735931288072,71.39696961967084,0.0,0,0.0,,,,,,
31.000000000000433,0.9139877877643325,251.31156569650338,35.615937956643414,73.37686860699316,0.0,0,0.0,,,,,,
32.000000000000426,0.9274346451873099,250.32161620284222,35.474516600406105,75.35676759431547,0.0,0,0.0,,,,,,
33.00000000000042,0.9405327853319302,249.33166670918106,35.333095244168796,77.33666658163779,0.0,0,0.0,,,,,,
34.00000000000041,0.9532998375819425,248.3417172155199,35.191673887931486,79.3165655689601,0.0,0,0.0,,,,,,
35.000000000000405,0.9657521274020177,247.35176772185875,35.05025253169418,81.29646455628242,0.0,0,0.0,,,,,,
36.0000000000004,0.9779048018324898,246.3618182281976,34.90883117545687,83.27636354360473,0.0,0,0.0,,,,,,
37.00000000000039,0.9897719402411413,245.37186873453643,34.76740981921956,85.25626253092705,0.0,0,0.0,,,,,,
38.000000000000384,1.0013666523626998,244.38191924087528,34.62598846298225,87.23616151824936,0.0,0,0.0,,,,,,
39.00000000000038,1.0127011653377191,243.39196974721412,34.48456710674494,89.21606050557168,0.0,0,0.0,,,,,,
40.00000000000037,1.023786901199537,242.40202025355296,34.34314575050763,91.19595949289399,0.0,0,0.0,,,,,,
41.00000000000036,1.0346345460402018,241.4120707598918,34.20172439427032,93.1758584802163,0.0,0,0.0,,,,,,
42.000000000000355,1.0452541119051004,240.42212126623065,34.06030303803301,95.15575746753862,0.0,0,0.0,,,,,,
42.42640687119285,1.0497227821029023,240.0,34.0,95.68708942782848,0.0,0,0.0,,,,,,
43.426406871192846,1.0601564529670686,239.00037169348963,33.97273740982244,96.0,0.0,0,0.0,,,,,,
44.42640687119284,1.0705731196337351,238.00074338697925,33.945474819644886,96.0,0.0,0,0.0,,,,,,
45.42640687119283,1.0809897863004017,237.00111508046888,33.91821222946733,96.0,0.0,0,0.0,,,,,,
46.426406871192825,1.0914064529670682,236.0014867739585,33.89094963928977,96.0,0.0,0,0.0,,,,,,
47.42640687119282,1.1018231196337347,235.00185846744813,33.863687049112215,96.0,0.0,0,0.0,,,,,,
48.42640687119281,1.1122397863004012,234.00223016093776,33.83642445893466,96.0,0.0,0,0.0,,,,,,
49.4264068711928,1.1226564529670677,233.00260185442738,33.8091618687571,96.0,0.0,0,0.0,,,,,,
50.426406871192796,1.1330731196337342,232.002973547917,33.781899278579544,96.0,0.0,0,0.0,,,,,,
51.42640687119279,1.1434897863004008,231.00334524140663,33.75463668840199,96.0,0.0,0,0.0,,,,,,
52.42640687119278,1.1539064529670673,230.00371693489626,33.72737409822443,96.0,0.0,0,0.0,,,,,,
53.426406871192775,1.1643231196337338,229.0040886283859,33.700111508046874,96.0,0.0,0,0.0,,,,,,
54.42640687119277,1.1747397863004003,228.0044603218755,33.67284891786932,96.0,0.0,0,0.0,,,,,,
55.42640687119276,1.1851564529670668,227.00483201536514,33.64558632769176,96.0,0.0,0,0.0,,,,,,
56.426406871192754,1.1955731196337334,226.00520370885476,33.6183237375142,96.0,0.0,0,0.0,,,,,,
57.42640687119275,1.2059897863003999,225.0055754023444,33.591061147336646,96.0,0.0,0,0.0,,,,,,
58.42640687119274,1.2164064529670664,224.00594709583402,33.56379855715909,96.0,0.0,0,0.0,,,,,,
59.42640687119273,1.226823119633733,223.00631878932364,33.53653596698153,96.0,0.0,0,0.0,,,,,,
60.426406871192725,1.2372397863003994,222.00669048281327,33.509273376803975,96.0,0.0,0,0.0,,,,,,
61.42640687119272,1.247656452967066,221.0070621763029,33.48201078662642,96.0,0.0,0,0.0,,,,,,
62.42640687119271,1.2580731196337325,220.00743386979252,33.45474819644886,96.0,0.0,0,0.0,,,,,,
63.426406871192704,1.268489786300399,219.00780556328215,33.427485606271304,96.0,0.0,0,0.0,,,,,,
64.4264068711927,1.2789064529670655,218.00817725677177,33.40022301609375,96.0,0.0,0,0.0,,,,,,
65.4264068711927,1.2893231196337323,217.0085489502614,33.37296042591619,96.0,0.0,0,0.0,,,,,,
66.4264068711927,1.299739786300399,216.00892064375103,33.34569783573863,96.0,0.0,0,0.0,,,,,,
67.4264068711927,1.3101564529670657,215.00929233724065,33.318435245561076,96.0,0.0,0,0.0,,,,,,
68.4264068711927,1.3205731196337325,214.00966403073028,33.29117265538352,96.0,0.0,0,0.0,,,,,,
69.4264068711927,1.3309897863003992,213.0100357242199,33.26391006520596,96.0,0.0,0,0.0,,,,,,
70.4264068711927,1.341406452967066,212.01040741770953,33.236647475028406,96.0,0.0,0,0.0,,,,,,
71.4264068711927,1.3518231196337327,211.01077911119916,33.20938488485085,96.0,0.0,0,0.0,,,,,,
72.4264068711927,1.3622397863003994,210.01115080468878,33.18212229467329,96.0,0.0,0,0.0,,,,,,
73.4264068711927,1.3726564529670662,209.0115224981784,33.154859704495735,96.0,0.0,0,0.0,,,,,,
74.4264068711927,1.383073119633733,208.01189419166803,33.12759711431818,96.0,0.0,0,0.0,,,,,,
75.4264068711927,1.3934897863003997,207.01226588515766,33.10033452414062,96.0,0.0,0,0.0,,,,,,
76.4264068711927,1.4039064529670664,206.0126375786473,33.073071933963064,96.0,0.0,0,0.0,,,,,,
77.4264068711927,1.4143231196337331,205.0130092721369,33.04580934378551,96.0,0.0,0,0.0,,,,,,
78.4264068711927,1.4247397863003999,204.01338096562654,33.01854675360795,96.0,0.0,0,0.0,,,,,,
79.4264068711927,1.4351564529670666,203.01375265911616,32.99128416343039,96.0,0.0,0,0.0,,,,,,
80.4264068711927,1.4455731196337334,202.0141243526058,32.964021573252836,96.0,0.0,0,-0.0,,,,,,
81.4264068711927,1.4559897863004,201.01449604609542,32.93675898307528,96.0,0.0,0,-0.0,,,,,,
82.4264068711927,1.4664064529670668,200.01486773958504,32.90949639289772,96.0,0.0,0,-0.0,,,,,,
83.4264068711927,1.4768231196337336,199.01523943307467,32.882233802720165,96.0,0.0,0,-0.0,,,,,,
84.4264068711927,1.4872397863004003,198.0156111265643,32.85497121254261,96.0,0.0,0,-0.0,,,,,,
85.4264068711927,1.497656452967067,197.01598282005392,32.82770862236505,96.0,0.0,0,-0.0,,,,,,
86.4264068711927,1.5080731196337338,196.01635451354355,32.800446032187494,96.0,0.0,0,-0.0,,,,,,
87.4264068711927,1.5184897863004005,195.01672620703317,32.77318344200994,96.0,0.0,0,-0.0,,,,,,
88.4264068711927,1.5289064529670673,194.0170979005228,32.74592085183238,96.0,0.0,0,-0.0,,,,,,
89.4264068711927,1.539323119633734,193.01746959401243,32.718658261654824,96.0,0.0,0,-0.0,,,,,,
90.4264068711927,1.5497397863004008,192.01784128750205,32.69139567147727,96.0,0.0,0,-0.0,,,,,,
91.4264068711927,1.5601564529670675,191.01821298099168,32.66413308129971,96.0,0.0,0,-0.0,,,,,,
92.4264068711927,1.5705731196337342,190.0185846744813,32.63687049112215,96.0,0.0,0,-0.0,,,,,,
93.4264068711927,1.580989786300401,189.01895636797093,32.609607900944596,96.0,0.0,0,-0.0,,,,,,
94.4264068711927,1.5914064529670677,188.01932806146056,32.58234531076704,96.0,0.0,0,-0.0,,,,,,
95.4264068711927,1.6018231196337345,187.01969975495018,32.55508272058948,96.0,0.0,0,-0.0,,,,,,
96.4264068711927,1.6122397863004012,186.0200714484398,32.527820130411925,96.0,0.0,0,-0.0,,,,,,
97.4264068711927,1.622656452967068,185.02044314192943,32.50055754023437,96.0,0.0,0,-0.0,,,,,,
98.4264068711927,1.6330731196337347,184.02081483541906,32.47329495005681,96.0,0.0,0,-0.0,,,,,,
99.4264068711927,1.6434897863004014,183.0211865289087,32.446032359879254,96.0,0.0,0,-0.0,,,,,,
100.4264068711927,1.6539064529670682,182.0215582223983,32.4187697697017,96.0,0.0,0,-0.0,,,,,,
101.4264068711927,1.664323119633735,181.02192991588794,32.39150717952414,96.0,0.0,0,-0.0,,,,,,
102.4264068711927,1.6747397863004017,180.02230160937756,32.36424458934658,96.0,0.0,0,-0.0,,,,,,
103.4264068711927,1.6851564529670684,179.0226733028672,32.336981999169026,96.0,0.0,0,-0.0,,,,,,
104.4264068711927,1.6955731196337351,178.02304499635682,32.30971940899147,96.0,0.0,0,-0.0,,,,,,
105.4264068711927,1.7059897863004019,177.02341668984644,32.28245681881391,96.0,0.0,0,-0.0,,,,,,
106.4264068711927,1.7164064529670686,176.02378838333607,32.255194228636356,96.0,0.0,0,-0.0,,,,,,
107.4264068711927,1.7268231196337354,175.0241600768257,32.2279316384588,96.0,0.0,0,-0.0,,,,,,
108.4264068711927,1.737239786300402,174.02453177031532,32.20066904828124,96.0,0.0,0,-0.0,,,,,,
109.4264068711927,1.7476564529670688,173.02490346380495,32.173406458103685,96.0,0.0,0,-0.0,,,,,,
110.4264068711927,1.7580731196337356,172.02527515729457,32.14614386792613,96.0,0.0,0,-0.0,,,,,,
111.4264068711927,1.7684897863004023,171.0256468507842,32.11888127774857,96.0,0.0,0,-0.0,,,,,,
112.4264068711927,1.778906452967069,170.02601854427382,32.091618687571014,96.0,0.0,0,-0.0,,,,,,
113.4264068711927,1.7893231196337358,169.02639023776345,32.06435609739346,96.0,0.0,0,0.0,,,,,,
114.4264068711927,1.7997397863004025,168.02676193125308,32.0370935072159,96.0,0.0,0,0.0,,,,,,
115.4264068711927,1.8101564529670693,167.0271336247427,32.00983091703834,96.0,0.0,0,0.0,,,,,,
116.4264068711927,1.820573119633736,166.02750531823233,31.982568326860786,96.0,0.0,0,0.0,,,,,,
117.4264068711927,1.8309897863004028,165.02787701172196,31.95530573668323,96.0,0.0,0,0.0,,,,,,
118.4264068711927,1.8414064529670695,164.02824870521158,31.928043146505672,96.0,0.0,0,0.0,,,,,,
119.4264068711927,1.8518231196337362,163.0286203987012,31.900780556328115,96.0,0.0,0,0.0,,,,,,
120.4264068711927,1.862239786300403,162.02899209219083,31.87351796615056,96.0,0.0,0,0.0,,,,,,
121.4264068711927,1.8726564529670697,161.02936378568046,31.846255375973,96.0,0.0,0,0.0,,,,,,
122.4264068711927,1.8830731196337365,160.02973547917009,31.818992785795444,96.0,0.0,0,0.0,,,,,,
123.4264068711927,1.8934897863004032,159.0301071726597,31.791730195617887,96.0,0.0,0,0.0,,,,,,
124.4264068711927,1.90390645296707,158.03047886614934,31.76446760544033,96.0,0.0,0,0.0,,,,,,
125.4264068711927,1.9143231196337367,157.03085055963896,31.737205015262774,96.0,0.0,0,0.0,,,,,,
126.4264068711927,1.9247397863004034,156.0312222531286,31.709942425085217,96.0,0.0,0,0.0,,,,,,
127.4264068711927,1.9351564529670702,155.03159394661822,31.68267983490766,96.0,0.0,0,0.0,,,,,,
128.42640687119268,1.9455731196337367,154.03196564010784,31.655417244730103,96.0,0.0,0,0.0,,,,,,
129.42640687119268,1.9559897863004034,153.03233733359747,31.628154654552546,96.0,0.0,0,0.0,,,,,,
130.42640687119268,1.9664064529670702,152.0327090270871,31.60089206437499,96.0,0.0,0,0.0,,,,,,
131.42640687119268,1.976823119633737,151.03308072057672,31.573629474197432,96.0,0.0,0,0.0,,,,,,
132.42640687119268,1.9872397863004037,150.03345241406635,31.546366884019875,96.0,0.0,0,0.0,,,,,,
133.42640687119268,1.9976564529670704,149.03382410755597,31.519104293842318,96.0,0.0,0,0.0,,,,,,
134.42640687119268,2.008073119633737,148.0341958010456,31.49184170366476,96.0,0.0,0,0.0,,,,,,
135.42640687119268,2.0184897863004037,147.03456749453522,31.464579113487204,96.0,0.0,0,0.0,,,,,,
136.42640687119268,2.02890645296707,146.03493918802485,31.437316523309647,96.0,0.0,0,0.0,,,,,,
137.42640687119268,2.0393231196337367,145.03531088151448,31.41005393313209,96.0,0.0,0,0.0,,,,,,
138.42640687119268,2.049739786300403,144.0356825750041,31.382791342954533,96.0,0.0,0,0.0,,,,,,
139.42640687119268,2.0601564529670697,143.03605426849373,31.355528752776976,96.0,0.0,0,0.0,,,,,,
140.42640687119268,2.0705731196337362,142.03642596198335,31.32826616259942,96.0,0.0,0,0.0,,,,,,
141.42640687119268,2.0809897863004028,141.03679765547298,31.301003572421862,96.0,0.0,0,0.0,,,,,,
142.42640687119268,2.0914064529670693,140.0371693489626,31.273740982244306,96.0,0.0,0,0.0,,,,,,
143.42640687119268,2.101823119633736,139.03754104245223,31.24647839206675,96.0,0.0,0,0.0,,,,,,
144.42640687119268,2.1122397863004023,138.03791273594186,31.21921580188919,96.0,0.0,0,0.0,,,,,,
145.42640687119268,2.122656452967069,137.03828442943149,31.191953211711635,96.0,0.0,0,0.0,,,,,,
146.42640687119268,2.1330731196337354,136.0386561229211,31.164690621534078,96.0,0.0,0,0.0,,,,,,
147.42640687119268,2.143489786300402,135.03902781641074,31.13742803135652,96.0,0.0,0,0.0,,,,,,
148.42640687119268,2.1539064529670684,134.03939950990036,31.110165441178964,96.0,0.0,0,0.0,,,,,,
149.42640687119268,2.164323119633735,133.03977120339,31.082902851001407,96.0,0.0,0,0.0,,,,,,
150.42640687119268,2.1747397863004014,132.04014289687962,31.05564026082385,96.0,0.0,0,0.0,,,,,,
151.42640687119268,2.185156452967068,131.04051459036924,31.028377670646293,96.0,0.0,0,0.0,,,,,,
152.42640687119268,2.1955731196337345,130.04088628385887,31.001115080468736,96.0,0.0,0,0.0,,,,,,
152.46730835786786,2.195999311247658,130.0,31.0,95.93942507996283,0.0,0,0.0,,,,,,
153.46730835786786,2.206503631289342,129.0126696287233,31.158678095383756,94.45842952304778,0.0,0,0.0,,,,,,
154.46730835786786,2.217173947859337,128.0253392574466,31.317356190767512,92.97743396613274,0.0,0,0.0,,,,,,
155.46730835786786,2.22801559157965,127.0380088861699,31.47603428615127,91.49643840921769,0.0,0,0.0,,,,,,
156.46730835786786,2.2390341540346244,126.0506785148932,31.634712381535024,90.01544285230264,0.0,0,0.0,,,,,,
157.46730835786786,2.250235505087519,125.06334814361651,31.79339047691878,88.5344472953876,0.0,0,0.0,,,,,,
158.46730835786786,2.261625811657645,124.07601777233981,31.952068572302537,87.05345173847255,0.0,0,0.0,,,,,,
159.46730835786786,2.2732115581084416,123.08868740106311,32.11074666768629,85.5724561815575,0.0,0,0.0,,,,,,
160.46730835786786,2.2849995684152207,122.10135702978641,32.26942476307005,84.09146062464245,0.0,0,0.0,,,,,,
161.46730835786786,2.296997030302318,121.11402665850972,32.428102858453805,82.6104650677274,0.0,0,0.0,,,,,,
162.46730835786786,2.3092115215634017,120.12669628723302,32.58678095383756,81.12946951081236,0.0,0,0.0,,,,,,
163.46730835786786,2.3216510388062566,119.13936591595632,32.74545904922132,79.64847395389731,0.0,0,0.0,,,,,,
164.46730835786786,2.334324028895074,118.15203554467962,32.90413714460507,78.16747839698226,0.0,0,0.0,,,,,,
165.46730835786786,2.3472394233998255,117.16470517340292,33.06281523998883,76.68648284006721,0.0,0,0.0,,,,,,
166.46730835786786,2.36040667640456,116.17737480212622,33.221493335372585,75.20548728315217,0.0,0,0.0,,,,,,
167.46730835786786,2.37383580607545,115.19004443084953,33.38017143075634,73.72449172623712,0.0,0,0.0,,,,,,
168.46730835786786,2.387537440446344,114.20271405957283,33.5388495261401,72.24349616932207,0.0,0,0.0,,,,,,
169.46730835786786,2.4015228679459515,113.21538368829613,33.697527621523854,70.76250061240702,0.0,0,0.0,,,,,,
170.46730835786786,2.415804093268389,112.22805331701943,33.85620571690761,69.28150505549198,0.0,0,0.0,,,,,,
171.46730835786786,2.43039389927982,111.24072294574273,34.014883812291366,67.80050949857693,0.0,0,0.0,,,,,,
172.46730835786786,2.4453059157610215,110.25339257446603,34.17356190767512,66.31951394166188,0.0,0,0.0,,,,,,
173.46730835786786,2.46055469591215,109.26606220318934,34.33224000305888,64.83851838474683,0.0,0,0.0,,,,,,
174.46730835786786,2.4761558016957794,108.27873183191264,34.490918098442634,63.35752282783179,0.0,0,0.0,,,,,,
175.46730835786786,2.4921258992724606,107.29140146063594,34.64959619382639,61.87652727091674,0.0,0,0.0,,,,,,
176.46730835786786,2.508482865995714,106.30407108935924,34.808274289210146,60.39553171400169,0.0,0,0.0,,,,,,
177.46730835786786,2.5252459106883127,105.31674071808254,34.9669523845939,58.914536157086644,0.0,0,0.0,,,,,,
178.46730835786786,2.5424357092285383,104.32941034680584,35.12563047997766,57.4335406001716,0.0,0,0.0,,,,,,
179.46730835786786,2.5600745578460797,103.34207997552915,35.284308575361415,55.95254504325655,0.0,0,0.0,,,,,,
180.46730835786786,2.5781865469777987,102.35474960425245,35.44298667074517,54.4715494863415,0.0,0,0.0,,,,,,
181.46730835786786,2.5967977590835405,101.36741923297575,35.60166476612893,52.990553929426454,0.0,0,0.0,,,,,,
182.46730835786786,2.6159364944967742,100.38008886169905,35.76034286151268,51.50955837251141,0.0,0,0.0,,,,,,
183.46730835786786,2.6356335302169334,99.39275849042235,35.91902095689644,50.02856281559636,0.0,0,0.0,,,,,,
184.46730835786786,2.655922417582394,98.40542811914565,36.077699052280195,48.54756725868131,0.0,0,0.0,,,,,,
185.46730835786786,2.676839826050898,97.41809774786896,36.23637714766395,47.066571701766264,0.0,0,-0.0,,,,,,
186.46730835786786,2.69842594193146,96.43076737659226,36.39505524304771,45.58557614485122,0.0,0,-0.0,,,,,,
187.46730835786786,2.7207249329562897,95.44343700531556,36.55373333843146,44.10458058793617,0.0,0,-0.0,,,,,,
188.46730835786786,2.7437854921843847,94.45610663403886,36.71241143381522,42.62358503102112,0.0,0,-0.0,,,,,,
189.46730835786786,2.767661478067894,93.46877626276216,36.871089529198976,41.142589474106074,0.0,0,-0.0,,,,,,
190.46730835786786,2.7924126718311544,92.48144589148546,37.02976762458273,39.66159391719103,0.0,0,-0.0,,,,,,
191.46730835786786,2.8181056789457415,91.49411552020877,37.18844571996649,38.18059836027598,0.0,0,-0.0,,,,,,
192.46730835786786,2.8448150089010573,90.50678514893207,37.347123815350244,36.69960280336093,0.0,0,-0.0,,,,,,
193.46730835786786,2.8726243773296503,89.51945477765537,37.505801910734,35.218607246445885,0.0,0,-0.0,,,,,,
