Distance (in),Time (s),X (in),Y (in),Velocity (in/s),Orientation (deg),Touch,Rotational Velocity (deg/s),Way X (in),Way Y (in),Way Velocity (in/s),Way Orientation (deg),Way Turn Radius (in),Touch this Point
0.0,0.0,282.0,132.0,12.0,325.0,0,0.0,282.0,132.0,12.0,325.0,3.0,0.0
1.0000000000000056,0.07978723404255363,281.2,132.6,13.066666666666672,325.37789586955813,0,5.542472753518844,246.0,159.0,60.0,0.0,3.0,0
2.000000000000011,0.15331664580725987,280.4,133.2,14.133333333333344,326.05682743181507,0,10.681856579509047,210.0,186.0,96.0,0.0,20.0,0
3.000000000000017,0.2214984639890784,279.59999999999997,133.79999999999998,15.200000000000015,326.97782788441845,0,15.472807603737197,140.0,186.0,96.0,0.0,3.0,0
4.000000000000022,0.285057786022977,278.79999999999995,134.39999999999998,16.266666666666687,328.09496806695654,0,19.959571261347683,78.0,176.0,36.0,0.0,10.0,0
5.0000000000000275,0.34458159554678675,277.99999999999994,134.99999999999997,17.333333333333357,329.37199985033345,0,24.17846843193665,74.0,154.0,12.0,0.0,3.0,0.0
6.000000000000033,0.4005517448005183,277.19999999999993,135.59999999999997,18.400000000000027,330.7799839130778,0,28.159681254886802,,,,,,
7.000000000000038,0.4533686462089692,276.3999999999999,136.19999999999996,19.466666666666697,332.2955802450689,0,31.928562727279616,,,,,,
8.000000000000044,0.5033686462089695,275.5999999999999,136.79999999999995,20.53333333333337,333.89979476726916,0,35.506614758032285,,,,,,
9.00000000000005,0.5508370006393494,274.7999999999999,137.39999999999995,21.60000000000004,335.5243879210474,0,37.69056116765402,,,,,,
10.000000000000055,0.5960177235309158,273.9999999999999,137.99999999999994,22.66666666666671,337.0775703867474,0,37.69056116765402,,,,,,
11.00000000000006,0.639121171806778,273.1999999999999,138.59999999999994,23.73333333333338,338.5653556959969,0,37.69056116765402,,,,,,
12.000000000000066,0.6803299630155694,272.39999999999986,139.19999999999993,24.80000000000005,339.99302846749896,0,37.69056116765402,,,,,,
13.000000000000071,0.7198036472260958,271.59999999999985,139.79999999999993,25.86666666666672,341.3652576362242,0,37.69056116765402,,,,,,
14.000000000000076,0.7576824351048838,270.79999999999984,140.39999999999992,26.93333333333339,342.6861885182682,0,37.69056116765402,,,,,,
15.000000000000082,0.7940902020951751,269.99999999999983,140.99999999999991,28.00000000000006,343.9595182874457,0,37.69056116765402,,,,,,
16.00000000000009,0.8291369310671379,269.1999999999998,141.5999999999999,29.066666666666734,345.18855832552134,0,37.69056116765402,,,,,,
17.000000000000096,0.8629207148509219,268.3999999999998,142.1999999999999,30.133333333333407,346.3762860934096,0,37.69056116765402,,,,,,
18.000000000000103,0.895529410503096,267.5999999999998,142.7999999999999,31.20000000000008,347.5253885680332,0,37.69056116765402,,,,,,
19.00000000000011,0.9270420155451129,266.7999999999998,143.3999999999999,32.26666666666675,348.63829883873166,0,37.69056116765402,,,,,,
20.000000000000117,0.9575298204231618,265.9999999999998,143.9999999999999,33.33333333333342,349.7172271164317,0,37.69056116765402,,,,,,
21.000000000000124,0.9870573794782801,265.19999999999976,144.59999999999988,34.40000000000009,350.74894067815245,0,37.141688221948286,,,,,,
22.00000000000013,1.0156833336767535,264.39999999999975,145.19999999999987,35.46666666666676,351.6944766093142,0,35.04786518173005,,,,,,
23.00000000000014,1.0434611114545314,263.59999999999974,145.79999999999987,36.53333333333343,352.5602361209038,0,33.01429604194976,,,,,,
24.000000000000146,1.0704395287207185,262.7999999999997,146.39999999999986,37.6000000000001,353.3520118850628,0,31.037609955030465,,,,,,
25.000000000000153,1.0966633049444947,261.9999999999997,146.99999999999986,38.66666666666677,354.0750593497472,0,29.11471124462596,,,,,,
26.00000000000016,1.1221735090261276,261.1999999999997,147.59999999999985,39.73333333333344,354.7341581460796,0,27.24275024840436,,,,,,
27.000000000000167,1.1470079461122205,260.3999999999997,148.19999999999985,40.80000000000011,355.3336651725667,0,25.41909792305299,,,,,,
28.000000000000174,1.1712014944993174,259.5999999999997,148.79999999999984,41.86666666666678,355.8775606551654,0,23.641323643622425,,,,,,
29.00000000000018,1.1947864001596948,258.79999999999967,149.39999999999984,42.93333333333345,356.3694882538228,0,21.907175726877256,,,,,,
30.00000000000019,1.2177925351290202,257.99999999999966,149.99999999999983,44.00000000000012,356.81279010222585,0,20.214564287179876,,,,,,
31.000000000000195,1.2402476249493797,257.19999999999965,150.59999999999982,45.06666666666679,357.2105375186016,0,18.561546097533917,,,,,,
32.0000000000002,1.2621774495107831,256.39999999999964,151.19999999999982,46.13333333333346,357.56555800423274,0,16.94631118079414,,,,,,
33.000000000000206,1.2836060209393547,255.59999999999962,151.7999999999998,47.20000000000013,357.8804590472464,0,15.3671708990653,,,,,,
34.00000000000021,1.304555741609746,254.7999999999996,152.3999999999998,48.2666666666668,358.15764916779733,0,13.822547344805944,,,,,,
35.00000000000022,1.3250475448884347,253.9999999999996,152.9999999999998,49.33333333333347,358.39935657355466,0,12.310963866573523,,,,,,
36.00000000000023,1.3451010208242637,253.1999999999996,153.5999999999998,50.40000000000014,358.6076457386862,0,10.831036586838135,,,,,,
37.000000000000234,1.3647345286776669,252.39999999999958,154.1999999999998,51.46666666666681,358.7844321731667,0,9.38146678976397,,,,,,
38.00000000000024,1.3839652979084363,251.59999999999957,154.79999999999978,52.53333333333348,358.931495610495,0,7.961034074038032,,,,,,
39.00000000000025,1.402809519013964,250.79999999999956,155.39999999999978,53.60000000000015,359.0504918094134,0,6.568590180296841,,,,,,
40.000000000000256,1.421282425417905,249.99999999999955,155.99999999999977,54.66666666666682,359.1429631378779,0,5.203053414937131,,,,,,
41.00000000000026,1.4393983674468906,249.19999999999953,156.59999999999977,55.73333333333349,359.2103480844327,0,3.8634036024752163,,,,,,
42.00000000000027,1.457170879295232,248.39999999999952,157.19999999999976,56.80000000000016,359.25398982257406,0,2.548677507454478,,,,,,
43.00000000000028,1.4746127397603483,247.5999999999995,157.79999999999976,57.86666666666683,0.0,0,1.2579646744432296,,,,,,
44.000000000000284,1.4917360274315814,246.7999999999995,158.39999999999975,58.9333333333335,0.0,0,0.0,,,,,,
45.000000000000036,1.5084248604932984,246.0,159.0,60.90728060314071,0.0,0,0.0,,,,,,
46.00000000000004,1.5245814490540721,245.2,159.6,62.88122787294843,0.0,0,0.0,,,,,,
47.00000000000005,1.5402386928215683,244.39999999999998,160.2,64.85517514275614,0.0,0,0.0,,,,,,
48.00000000000006,1.5554265325042749,243.59999999999997,160.79999999999998,66.82912241256385,0.0,0,0.0,,,,,,
49.000000000000064,1.570172294326071,242.79999999999995,161.39999999999998,68.80306968237156,0.0,0,0.0,,,,,,
50.00000000000007,1.58450098581941,241.99999999999994,161.99999999999997,70.77701695217927,0.0,0,0.0,,,,,,
51.00000000000008,1.5984355509379222,241.19999999999993,162.59999999999997,72.75096422198698,0.0,0,0.0,,,,,,
52.000000000000085,1.6119970910224957,240.39999999999992,163.19999999999996,74.72491149179469,0.0,0,0.0,,,,,,
53.00000000000009,1.6252050569624081,239.5999999999999,163.79999999999995,76.6988587616024,0.0,0,0.0,,,,,,
54.0000000000001,1.6380774169430032,238.7999999999999,164.39999999999995,78.6728060314101,0.0,0,0.0,,,,,,
55.00000000000011,1.6506308034096606,237.9999999999999,164.99999999999994,80.64675330121781,0.0,0,0.0,,,,,,
56.000000000000114,1.6628806422634288,237.19999999999987,165.59999999999994,82.62070057102552,0.0,0,0.0,,,,,,
57.00000000000012,1.6748412668053454,236.39999999999986,166.19999999999993,84.59464784083323,0.0,0,0.0,,,,,,
58.00000000000013,1.6865260185400799,235.59999999999985,166.79999999999993,86.56859511064094,0.0,0,-0.0,,,,,,
59.000000000000135,1.697947336616446,234.79999999999984,167.39999999999992,88.54254238044865,0.0,0,-0.0,,,,,,
60.00000000000014,1.7091168374079897,233.99999999999983,167.99999999999991,90.51648965025636,0.0,0,-0.0,,,,,,
61.00000000000015,1.7200453855098645,233.19999999999982,168.5999999999999,92.49043692006407,0.0,0,-0.0,,,,,,
62.000000000000156,1.7307431572395593,232.3999999999998,169.1999999999999,94.46438418987178,0.0,0,-0.0,,,,,,
63.00000000000016,1.741243808101435,231.5999999999998,169.7999999999999,96.0,0.0,0,-0.0,,,,,,
64.00000000000017,1.7516604747681017,230.79999999999978,170.3999999999999,96.0,0.0,0,-0.0,,,,,,
65.00000000000017,1.7620771414347685,229.99999999999977,170.9999999999999,96.0,0.0,0,-0.0,,,,,,
66.00000000000017,1.7724938081014352,229.19999999999976,171.59999999999988,96.0,0.0,0,-0.0,,,,,,
67.00000000000017,1.782910474768102,228.39999999999975,172.19999999999987,96.0,0.0,0,-0.0,,,,,,
68.00000000000017,1.7933271414347687,227.59999999999974,172.79999999999987,96.0,0.0,0,-0.0,,,,,,
69.00000000000017,1.8037438081014354,226.79999999999973,173.39999999999986,96.0,0.0,0,-0.0,,,,,,
70.00000000000017,1.8141604747681022,225.99999999999972,173.99999999999986,96.0,0.0,0,-0.0,,,,,,
71.00000000000017,1.824577141434769,225.1999999999997,174.59999999999985,96.0,0.0,0,-0.0,,,,,,
72.00000000000017,1.8349938081014356,224.3999999999997,175.19999999999985,96.0,0.0,0,0.0,,,,,,
73.00000000000017,1.8454104747681024,223.59999999999968,175.79999999999984,96.0,0.0,0,0.0,,,,,,
74.00000000000017,1.8558271414347691,222.79999999999967,176.39999999999984,96.0,0.0,0,0.0,,,,,,
75.00000000000017,1.8662438081014359,221.99999999999966,176.99999999999983,96.0,0.0,0,0.0,,,,,,
76.00000000000017,1.8766604747681026,221.19999999999965,177.59999999999982,96.0,0.0,0,0.0,,,,,,
77.00000000000017,1.8870771414347693,220.39999999999964,178.19999999999982,96.0,0.0,0,0.0,,,,,,
78.00000000000017,1.897493808101436,219.59999999999962,178.7999999999998,96.0,0.0,0,0.0,,,,,,
79.00000000000017,1.9079104747681028,218.7999999999996,179.3999999999998,96.0,0.0,0,0.0,,,,,,
80.00000000000017,1.9183271414347696,217.9999999999996,179.9999999999998,96.0,0.0,0,0.0,,,,,,
81.00000000000017,1.9287438081014363,217.1999999999996,180.5999999999998,96.0,0.0,0,0.0,,,,,,
82.00000000000017,1.939160474768103,216.39999999999958,181.1999999999998,96.0,0.0,0,0.0,,,,,,
83.00000000000017,1.9495771414347698,215.59999999999957,181.79999999999978,96.0,0.0,0,0.0,,,,,,
83.99969158455154,1.9599905954405132,214.79363493336078,182.39089647445826,96.0,0.0,0,0.0,,,,,,
84.99958742114003,1.9704061770716434,213.96010915117049,182.94318847553293,96.0,0.0,0,0.0,,,,,,
85.99948325772853,1.9808217587027737,213.10002196375345,183.45313132926074,96.0,0.0,0,0.0,,,,,,
86.99937909431702,1.9912373403339039,212.21552314115348,183.9194504440805,96.0,0.0,0,0.0,,,,,,
87.99927493090551,2.001652921965034,211.308823469789,184.34098026505941,96.0,0.0,0,0.0,,,,,,
88.99917076749401,2.012068503596164,210.38218922663833,184.71666718717356,96.0,0.0,0,0.0,,,,,,
89.9990666040825,2.022484085227294,209.4379365147276,185.04557218877162,96.0,0.0,0,0.0,,,,,,
90.99896244067101,2.0328996668584245,208.47842547407924,185.32687317864003,96.0,0.0,0,0.0,,,,,,
91.99885827725949,2.0433152484895545,207.50605438259123,185.55986705080278,96.0,0.0,0,0.0,,,,,,
92.99875411384801,2.053730830120685,206.52325366159116,185.7439714419204,96.0,0.0,0,0.0,,,,,,
93.9986499504365,2.064146411751815,205.53247980104885,185.87872618689474,96.0,0.0,0,0.0,,,,,,
94.99854578702497,2.074561993382945,204.53620921963062,185.9637944690423,96.0,0.0,0,0.0,,,,,,
95.99854578702497,2.0849786600496114,203.53620921963062,185.9637944690423,96.0,0.0,0,0.0,,,,,,
96.99854578702497,2.095395326716278,202.53620921963062,185.9637944690423,96.0,0.0,0,0.0,,,,,,
97.99854578702497,2.1058119933829444,201.53620921963062,185.9637944690423,96.0,0.0,0,0.0,,,,,,
98.99854578702497,2.116228660049611,200.53620921963062,185.9637944690423,96.0,0.0,0,0.0,,,,,,
99.99854578702497,2.1266453267162775,199.53620921963062,185.9637944690423,96.0,0.0,0,0.0,,,,,,
100.99854578702497,2.137061993382944,198.53620921963062,185.9637944690423,96.0,0.0,0,0.0,,,,,,
101.99854578702497,2.1474786600496105,197.53620921963062,185.9637944690423,96.0,0.0,0,0.0,,,,,,
102.99854578702497,2.157895326716277,196.53620921963062,185.9637944690423,96.0,0.0,0,0.0,,,,,,
103.99854578702497,2.1683119933829436,195.53620921963062,185.9637944690423,96.0,0.0,0,0.0,,,,,,
104.99854578702497,2.17872866004961,194.53620921963062,185.9637944690423,96.0,0.0,0,0.0,,,,,,
105.99854578702497,2.1891453267162766,193.53620921963062,185.9637944690423,96.0,0.0,0,0.0,,,,,,
106.99854578702497,2.199561993382943,192.53620921963062,185.9637944690423,96.0,0.0,0,0.0,,,,,,
107.99854578702497,2.2099786600496096,191.53620921963062,185.9637944690423,96.0,0.0,0,0.0,,,,,,
108.99854578702497,2.220395326716276,190.53620921963062,185.9637944690423,96.0,0.0,0,0.0,,,,,,
109.99854578702497,2.2308119933829427,189.53620921963062,185.9637944690423,96.0,0.0,0,0.0,,,,,,
110.99854578702497,2.241228660049609,188.53620921963062,185.9637944690423,96.0,0.0,0,0.0,,,,,,
111.99854578702497,2.2516453267162757,187.53620921963062,185.9637944690423,96.0,0.0,0,0.0,,,,,,
112.99854578702497,2.2620619933829422,186.53620921963062,185.9637944690423,96.0,0.0,0,0.0,,,,,,
113.99854578702497,2.2724786600496087,185.53620921963062,185.9637944690423,96.0,0.0,0,-0.0,,,,,,
114.99854578702497,2.2828953267162753,184.53620921963062,185.9637944690423,96.0,0.0,0,-0.0,,,,,,
115.99854578702497,2.293311993382942,183.53620921963062,185.9637944690423,96.0,0.0,0,-0.0,,,,,,
116.99854578702497,2.3037286600496083,182.53620921963062,185.9637944690423,96.0,0.0,0,-0.0,,,,,,
117.99854578702497,2.314145326716275,181.53620921963062,185.9637944690423,96.0,0.0,0,-0.0,,,,,,
118.99854578702497,2.3245619933829413,180.53620921963062,185.9637944690423,96.0,0.0,0,-0.0,,,,,,
119.99854578702497,2.334978660049608,179.53620921963062,185.9637944690423,96.0,0.0,0,-0.0,,,,,,
120.99854578702497,2.3453953267162744,178.53620921963062,185.9637944690423,96.0,0.0,0,-0.0,,,,,,
121.99854578702497,2.355811993382941,177.53620921963062,185.9637944690423,96.0,0.0,0,-0.0,,,,,,
122.99854578702497,2.3662286600496074,176.53620921963062,185.9637944690423,96.0,0.0,0,-0.0,,,,,,
123.99854578702497,2.376645326716274,175.53620921963062,185.9637944690423,96.0,0.0,0,-0.0,,,,,,
124.99854578702497,2.3870619933829405,174.53620921963062,185.9637944690423,96.0,0.0,0,-0.0,,,,,,
125.99854578702497,2.397478660049607,173.53620921963062,185.9637944690423,96.0,0.0,0,-0.0,,,,,,
126.99854578702497,2.4078953267162735,172.53620921963062,185.9637944690423,96.0,0.0,0,-0.0,,,,,,
127.99854578702497,2.41831199338294,171.53620921963062,185.9637944690423,96.0,0.0,0,-0.0,,,,,,
128.99854578702497,2.4287286600496065,170.53620921963062,185.9637944690423,96.0,0.0,0,-0.0,,,,,,
129.99854578702497,2.439145326716273,169.53620921963062,185.9637944690423,96.0,0.0,0,-0.0,,,,,,
130.99854578702497,2.4495619933829396,168.53620921963062,185.9637944690423,96.0,0.0,0,-0.0,,,,,,
131.99854578702497,2.459978660049606,167.53620921963062,185.9637944690423,96.0,0.0,0,-0.0,,,,,,
132.99854578702497,2.4703953267162726,166.53620921963062,185.9637944690423,96.0,0.0,0,-0.0,,,,,,
133.99854578702497,2.480811993382939,165.53620921963062,185.9637944690423,96.0,0.0,0,-0.0,,,,,,
134.99854578702497,2.4912286600496056,164.53620921963062,185.9637944690423,96.0,0.0,0,0.0,,,,,,
135.99854578702497,2.501645326716272,163.53620921963062,185.9637944690423,96.0,0.0,0,0.0,,,,,,
136.99854578702497,2.5120619933829387,162.53620921963062,185.9637944690423,96.0,0.0,0,0.0,,,,,,
137.99854578702497,2.522478660049605,161.53620921963062,185.9637944690423,96.0,0.0,0,0.0,,,,,,
138.99854578702497,2.5328953267162717,160.53620921963062,185.9637944690423,96.0,0.0,0,0.0,,,,,,
139.99854578702497,2.5433119933829382,159.53620921963062,185.9637944690423,96.0,0.0,0,0.0,,,,,,
140.99854578702497,2.5537286600496047,158.53620921963062,185.9637944690423,96.0,0.0,0,0.0,,,,,,
141.99854578702497,2.5641453267162713,157.53620921963062,185.9637944690423,96.0,0.0,0,0.0,,,,,,
142.99854578702497,2.574561993382938,156.53620921963062,185.9637944690423,96.0,0.0,0,0.0,,,,,,
143.99854578702497,2.5849786600496043,155.53620921963062,185.9637944690423,96.0,0.0,0,0.0,,,,,,
144.99854578702497,2.595395326716271,154.53620921963062,185.9637944690423,96.0,0.0,0,0.0,,,,,,
145.99854578702497,2.6058119933829373,153.53620921963062,185.9637944690423,96.0,0.0,0,0.0,,,,,,
146.99854578702497,2.616228660049604,152.53620921963062,185.9637944690423,96.0,0.0,0,0.0,,,,,,
147.99854578702497,2.6266453267162704,151.53620921963062,185.9637944690423,96.0,0.0,0,0.0,,,,,,
148.99854578702497,2.637061993382937,150.53620921963062,185.9637944690423,96.0,0.0,0,0.0,,,,,,
149.99854578702497,2.6474786600496034,149.53620921963062,185.9637944690423,96.0,0.0,0,0.0,,,,,,
150.99854578702497,2.65789532671627,148.53620921963062,185.9637944690423,96.0,0.0,0,0.0,,,,,,
151.99854578702497,2.6683119933829365,147.53620921963062,185.9637944690423,96.0,0.0,0,0.0,,,,,,
152.99854578702497,2.678728660049603,146.53620921963062,185.9637944690423,96.0,0.0,0,0.0,,,,,,
153.99854578702497,2.6891453267162695,145.53620921963062,185.9637944690423,96.0,0.0,0,0.0,,,,,,
154.99854578702497,2.699561993382936,144.53620921963062,185.9637944690423,96.0,0.0,0,0.0,,,,,,
155.99854578702497,2.7099786600496025,143.53620921963062,185.9637944690423,96.0,0.0,0,0.0,,,,,,
156.99854578702497,2.720395326716269,142.53620921963062,185.9637944690423,96.0,0.0,0,0.0,,,,,,
157.99854578702497,2.7308119933829356,141.53620921963062,185.9637944690423,96.0,0.0,0,0.0,,,,,,
158.99854578702497,2.741228660049602,140.53620921963062,185.9637944690423,96.0,0.0,0,0.0,,,,,,
159.53597593847613,2.7468420972278977,140.0,186.0,95.47988456311492,0.0,0,0.0,,,,,,
160.53597593847613,2.7573688569842743,139.01275887928736,185.84076756117537,94.51210217226718,0.0,0,0.0,,,,,,
161.53597593847613,2.7680039630828714,138.02551775857472,185.68153512235074,93.54431978141943,0.0,0,0.0,,,,,,
162.53597593847613,2.7787496690203413,137.03827663786208,185.5223026835261,92.57653739057169,0.0,0,0.0,,,,,,
163.53597593847613,2.7896082993379125,136.05103551714944,185.36307024470148,91.60875499972394,0.0,0,0.0,,,,,,
164.53597593847613,2.800582252639479,135.0637943964368,185.20383780587684,90.6409726088762,0.0,0,0.0,,,,,,
165.53597593847613,2.8116740047716724,134.07655327572417,185.0446053670522,89.67319021802845,0.0,0,0.0,,,,,,
166.53597593847613,2.8228861121764695,133.08931215501153,184.88537292822758,88.70540782718071,0.0,0,0.0,,,,,,
167.53597593847613,2.834221215427687,132.1020710342989,184.72614048940295,87.73762543633296,0.0,0,0.0,,,,,,
168.53597593847613,2.8456820429636065,131.11482991358625,184.56690805057832,86.76984304548522,0.0,0,0.0,,,,,,
169.53597593847613,2.857271415028919,130.1275887928736,184.4076756117537,85.80206065463747,0.0,0,0.0,,,,,,
170.53597593847613,2.8689922478402474,129.14034767216097,184.24844317292906,84.83427826378973,0.0,0,0.0,,,,,,
171.53597593847613,2.8808475579906263,128.15310655144833,184.08921073410443,83.86649587294198,0.0,0,0.0,,,,,,
172.53597593847613,2.8928404671095906,127.16586543073568,183.9299782952798,82.89871348209424,0.0,0,0.0,,,,,,
173.53597593847613,2.904974206796872,126.17862431002303,183.77074585645516,81.93093109124649,0.0,0,0.0,,,,,,
174.53597593847613,2.9172521238492175,125.19138318931037,183.61151341763053,80.96314870039875,0.0,0,0.0,,,,,,
175.53597593847613,2.929677685801478,124.20414206859772,183.4522809788059,79.995366309551,0.0,0,0.0,,,,,,
176.53597593847613,2.942254486804914,123.21690094788507,183.29304853998127,79.02758391870326,0.0,0,0.0,,,,,,
177.53597593847613,2.9549862538676512,122.22965982717241,183.13381610115664,78.05980152785551,0.0,0,0.0,,,,,,
178.53597593847613,2.967876853484398,121.24241870645976,182.974583662332,77.09201913700777,0.0,0,0.0,,,,,,
179.53597593847613,2.9809302986849193,120.2551775857471,182.81535122350738,76.12423674616002,0.0,0,0.0,,,,,,
180.53597593847613,2.994150756533426,119.26793646503445,182.65611878468275,75.15645435531228,0.0,0,0.0,,,,,,
181.53597593847613,3.0075425561139335,118.2806953443218,182.49688634585812,74.18867196446453,0.0,0,0.0,,,,,,
