Distance (in),Time (s),X (in),Y (in),Velocity (in/s),Orientation (deg),Touch,Rotational Velocity (deg/s),Way X (in),Way Y (in),Way Velocity (in/s),Way Orientation (deg),Way Turn Radius (in),Touch this Point
0.0,0.0,282.0,183.6,12.0,45.0,0,0.0,282.0,183.6,12.0,45.0,3.0,0
0.999999999999995,0.07969664284458122,281.1786300343267,183.02960419050464,13.095159954231056,44.49046584098591,0,-7.509463423831664,246.0,158.6,60.0,0.0,3.0,0
1.99999999999999,0.1529957019069269,280.35726006865343,182.4592083810093,14.190319908462111,43.57712972101247,0,-14.460905441398296,210.0,134.60000000000002,96.0,0.0,20.0,0
2.999999999999985,0.22084797446704824,279.53589010298015,181.88881257151394,15.285479862693167,42.34064283185213,0,-20.93152183215481,140.0,134.60000000000002,96.0,0.0,3.0,0
3.99999999999998,0.2840069601664339,278.71452013730686,181.3184167620186,16.380639816924223,40.84350265264361,0,-26.983525986269484,78.0,139.60000000000002,36.0,0.0,10.0,0
4.999999999999975,0.34307991716762337,277.8931501716336,180.74802095252323,17.47579977115528,39.13480570557738,0,-32.6677904220296,74.0,161.60000000000002,12.0,0.0,3.0,0
5.99999999999997,0.39856340661115774,277.0717802059603,180.17762514302788,18.570959725386334,37.2535842582023,0,-38.026445325044406,,,,,,
6.9999999999999645,0.45086865667526876,276.250410240287,179.60722933353253,19.66611967961739,35.231196671925154,0,-43.094773154936256,,,,,,
7.999999999999959,0.500340055626569,275.4290402746137,179.03683352403718,20.761279633848442,33.093070687432416,0,-47.90261638942741,,,,,,
8.999999999999954,0.5472688926575976,274.60767030894044,178.46643771454183,21.856439588079496,30.972825163412175,0,-49.82403019421147,,,,,,
9.999999999999948,0.5919037403058075,273.78630034326716,177.89604190504647,22.95159954231055,28.946991932656886,0,-49.82403019421147,,,,,,
10.999999999999943,0.6344584175520205,272.9649303775939,177.32564609555112,24.046759496541604,27.007521281075295,0,-49.82403019421147,,,,,,
11.999999999999938,0.6751181799770731,272.1435604119206,176.75525028605577,25.141919450772658,25.147350894608763,0,-49.82403019421147,,,,,,
12.999999999999932,0.7140445904665826,271.3221904462473,176.18485447656042,26.237079405003712,23.360250713179337,0,-49.82403019421147,,,,,,
13.999999999999927,0.7513793941590114,270.500820480574,175.61445866706507,27.332239359234766,21.640697104718015,0,-49.82403019421147,,,,,,
14.999999999999922,0.7872476323256833,269.67945051490074,175.0440628575697,28.42739931346582,19.983769952217163,0,-49.82403019421147,,,,,,
15.999999999999917,0.8217601677781264,268.85808054922745,174.47366704807436,29.522559267696874,18.38506782277505,0,-49.82403019421147,,,,,,
16.99999999999991,0.8550157503964381,268.03671058355417,173.903271238579,30.617719221927928,16.84063753560866,0,-49.82403019421147,,,,,,
17.999999999999908,0.8871027197405569,267.2153406178809,173.33287542908366,31.712879176158985,15.346915292479917,0,-49.82403019421147,,,,,,
18.999999999999904,0.9181004186650774,266.3939706522076,172.7624796195883,32.80803913039004,13.900677165181678,0,-49.82403019421147,,,,,,
19.9999999999999,0.9480803748690676,265.5726006865343,172.19208381009295,33.9031990846211,12.498997210353933,0,-49.82403019421147,,,,,,
20.999999999999897,0.9771072946437401,264.75123072086103,171.6216880005976,34.99835903885216,11.201744011852263,0,-47.53278283570678,,,,,,
21.999999999999893,1.0052399035347526,263.92986075518775,171.05129219110225,36.093518993083215,10.016232970359509,0,-44.736751619541025,,,,,,
22.99999999999989,1.0325316613724016,263.10849078951446,170.4808963816069,37.18867894731427,8.934071503612037,0,-42.02186520961735,,,,,,
23.999999999999886,1.059031373545847,262.2871208238412,169.91050057211154,38.28383890154533,7.9476722749804685,0,-39.38354656266226,,,,,,
24.999999999999883,1.0847837160787006,261.4657508581679,169.3401047626162,39.37899885577639,7.050158021321547,0,-36.817595271316065,,,,,,
25.99999999999988,1.1098296886922165,260.6443808924946,168.76970895312084,40.474158810007445,6.2352797095396975,0,-34.3201473438417,,,,,,
26.999999999999876,1.1342070073911963,259.8230109268213,168.1993131436255,41.5693187642385,5.4973458740405565,0,-31.88764021304716,,,,,,
27.999999999999872,1.1579504460081074,259.00164096114804,167.62891733413014,42.66447871846956,4.831161376824923,0,-29.51678217925109,,,,,,
28.99999999999987,1.1810921344669858,258.18027099547476,167.05852152463478,43.75963867270062,4.2319741433332,0,-27.204525629703042,,,,,,
29.999999999999865,1.2036618201857743,257.3589010298015,166.48812571513943,44.854798626931675,3.695428677455828,0,-24.94804348790261,,,,,,
30.99999999999986,1.2256870979519672,256.5375310641282,165.91772990564408,45.94995858116273,3.217525361458844,0,-22.744708436373198,,,,,,
31.999999999999858,1.247193612726865,255.7161610984549,165.34733409614873,47.04511853539379,2.7945847109877233,0,-20.592074529969125,,,,,,
32.99999999999985,1.2682052391160925,254.89479113278162,164.77693828665338,48.14027848962484,2.4232158895805633,0,-18.487860877087265,,,,,,
33.999999999999844,1.2887442406555238,254.07342116710834,164.20654247715802,49.23543844385589,2.1002888972917755,0,-16.429937115836637,,,,,,
34.99999999999984,1.308831411576818,253.25205120143505,163.63614666766267,50.33059839808694,1.8229099388348966,0,-14.41631045334536,,,,,,
35.99999999999983,1.3284862033153404,252.43068123576177,163.06575085816732,51.42575835231799,1.588399551824205,0,-12.445114070578555,,,,,,
36.99999999999982,1.3477268376894782,251.60931127008848,162.49535504867197,52.52091830654904,1.3942731381797058,0,-10.514596723589108,,,,,,
37.999999999999815,1.3665704084017063,250.7879413044152,161.92495923917662,53.61607826078009,1.2382235939047521,0,-8.623113396053903,,,,,,
38.99999999999981,1.385032972278168,249.96657133874191,161.35456342968126,54.71123821501114,1.1181057761261295,0,-6.7691168780847235,,,,,,
39.9999999999998,1.40312963146699,249.14520137306863,160.7841676201859,55.80639816924219,1.0319225830094705,0,-4.951150163308675,,,,,,
40.999999999999794,1.4208746076495566,248.32383140739535,160.21377181069056,56.901558123473244,0.9778124531440606,0,-3.167839570625567,,,,,,
41.99999999999979,1.4382813091782911,247.50246144172206,159.6433760011952,57.996718077704294,0.0,0,-1.4178885093050653,,,,,,
42.99999999999978,1.4553623919348666,246.68109147604878,159.07298019169986,59.091878031935344,0.0,0,0.0,,,,,,
43.82921400162224,1.4692022480899078,246.0,158.6,60.737980361559345,0.0,0,0.0,,,,,,
44.82921400162225,1.4854016830350671,245.16794970566215,158.04529980377475,62.723116076107345,0.0,0,0.0,,,,,,
45.829214001622255,1.501096405876708,244.3358994113243,157.4905996075495,64.70825179065534,0.0,0,0.0,,,,,,
46.82921400162226,1.5163169161436834,243.50384911698646,156.93589941132427,66.69338750520333,0.0,0,0.0,,,,,,
47.82921400162227,1.5310910298375024,242.6717988226486,156.38119921509903,68.67852321975133,0.0,0,0.0,,,,,,
48.829214001622276,1.5454441852788956,241.83974852831076,155.8264990188738,70.66365893429932,0.0,0,0.0,,,,,,
49.82921400162228,1.559399706589119,241.00769823397292,155.27179882264855,72.64879464884731,0.0,0,0.0,,,,,,
50.82921400162229,1.572979031658191,240.17564793963507,154.7170986264233,74.63393036339531,0.0,0,0.0,,,,,,
51.8292140016223,1.5862019101932003,239.34359764529722,154.16239843019807,76.6190660779433,0.0,0,0.0,,,,,,
52.829214001622304,1.5990865764384015,238.51154735095938,153.60769823397283,78.6042017924913,0.0,0,0.0,,,,,,
53.82921400162231,1.6116499003572002,237.67949705662153,153.05299803774759,80.58933750703929,0.0,0,0.0,,,,,,
54.82921400162232,1.6239075204205513,236.84744676228368,152.49829784152234,82.57447322158728,0.0,0,0.0,,,,,,
55.829214001622326,1.6358739606234098,236.01539646794583,151.9435976452971,84.55960893613528,0.0,0,-0.0,,,,,,
56.82921400162233,1.64756273392505,235.183346173608,151.38889744907186,86.54474465068327,0.0,0,-0.0,,,,,,
57.82921400162234,1.658986433960496,234.35129587927014,150.83419725284662,88.52988036523126,0.0,0,-0.0,,,,,,
58.82921400162235,1.6701568165835734,233.5192455849323,150.27949705662138,90.51501607977926,0.0,0,-0.0,,,,,,
59.829214001622354,1.681084872565118,232.68719529059445,149.72479686039614,92.50015179432725,0.0,0,-0.0,,,,,,
60.82921400162236,1.6917808925731623,231.8551449962566,149.1700966641709,94.48528750887525,0.0,0,-0.0,,,,,,
61.82921400162237,1.7022803911231845,231.02309470191875,148.61539646794566,96.0,0.0,0,-0.0,,,,,,
62.829214001622375,1.7126970577898513,230.1910444075809,148.06069627172042,96.0,0.0,0,-0.0,,,,,,
63.82921400162238,1.723113724456518,229.35899411324306,147.50599607549518,96.0,0.0,0,-0.0,,,,,,
64.82921400162239,1.7335303911231847,228.5269438189052,146.95129587926994,96.0,0.0,0,-0.0,,,,,,
65.8292140016224,1.7439470577898515,227.69489352456736,146.3965956830447,96.0,0.0,0,-0.0,,,,,,
66.82921400162242,1.7543637244565182,226.86284323022952,145.84189548681945,96.0,0.0,0,-0.0,,,,,,
67.82921400162243,1.764780391123185,226.03079293589167,145.2871952905942,96.0,0.0,0,-0.0,,,,,,
68.82921400162245,1.7751970577898517,225.19874264155382,144.73249509436897,96.0,0.0,0,-0.0,,,,,,
69.82921400162246,1.7856137244565184,224.36669234721597,144.17779489814373,96.0,0.0,0,-0.0,,,,,,
70.82921400162247,1.7960303911231852,223.53464205287813,143.6230947019185,96.0,0.0,0,0.0,,,,,,
71.82921400162249,1.806447057789852,222.70259175854028,143.06839450569325,96.0,0.0,0,0.0,,,,,,
72.8292140016225,1.8168637244565187,221.87054146420243,142.513694309468,96.0,0.0,0,0.0,,,,,,
73.82921400162252,1.8272803911231854,221.03849116986459,141.95899411324277,96.0,0.0,0,0.0,,,,,,
74.82921400162253,1.8376970577898522,220.20644087552674,141.40429391701753,96.0,0.0,0,0.0,,,,,,
75.82921400162255,1.848113724456519,219.3743905811889,140.84959372079229,96.0,0.0,0,0.0,,,,,,
76.82921400162256,1.8585303911231856,218.54234028685104,140.29489352456704,96.0,0.0,0,0.0,,,,,,
77.82921400162257,1.8689470577898524,217.7102899925132,139.7401933283418,96.0,0.0,0,0.0,,,,,,
78.82921400162259,1.8793637244565191,216.87823969817535,139.18549313211656,96.0,0.0,0,0.0,,,,,,
79.8292140016226,1.8897803911231859,216.0461894038375,138.63079293589132,96.0,0.0,0,0.0,,,,,,
80.82921400162262,1.9001970577898526,215.21413910949965,138.07609273966608,96.0,0.0,0,0.0,,,,,,
81.82872182062519,1.9106085975711293,214.3739783567099,137.5346633447132,96.0,0.0,0,0.0,,,,,,
82.82861765721368,1.9210241792022595,213.508032859252,137.03473327014336,96.0,0.0,0,0.0,,,,,,
83.82851349380219,1.9314397608333898,212.61818347835765,136.57870721458409,96.0,0.0,0,0.0,,,,,,
84.82840933039068,1.94185534246452,211.7066543740545,136.1677250056805,96.0,0.0,0,0.0,,,,,,
85.82830516697919,1.9522709240956502,210.77572389438808,135.80281388491946,96.0,0.0,0,0.0,,,,,,
86.8282010035677,1.9626865057267804,209.82771888073836,135.48488594006085,96.0,0.0,0,0.0,,,,,,
87.82809684015618,1.9731020873579104,208.86500885192802,135.21473582539312,96.0,0.0,0,0.0,,,,,,
88.82799267674469,1.9835176689890406,207.89000008165937,134.99303877551148,96.0,0.0,0,0.0,,,,,,
89.82788851333318,1.9939332506201708,206.90512958408334,134.82034891758303,96.0,0.0,0,0.0,,,,,,
90.82778434992166,2.004348832251301,205.91285902253324,134.6970978863175,96.0,0.0,0,0.0,,,,,,
91.82778434992166,2.0147654989179675,204.91285902253324,134.6970978863175,96.0,0.0,0,0.0,,,,,,
92.82778434992166,2.025182165584634,203.91285902253324,134.6970978863175,96.0,0.0,0,0.0,,,,,,
93.82778434992166,2.0355988322513006,202.91285902253324,134.6970978863175,96.0,0.0,0,0.0,,,,,,
94.82778434992166,2.046015498917967,201.91285902253324,134.6970978863175,96.0,0.0,0,0.0,,,,,,
95.82778434992166,2.0564321655846336,200.91285902253324,134.6970978863175,96.0,0.0,0,0.0,,,,,,
96.82778434992166,2.0668488322513,199.91285902253324,134.6970978863175,96.0,0.0,0,0.0,,,,,,
97.82778434992166,2.0772654989179666,198.91285902253324,134.6970978863175,96.0,0.0,0,0.0,,,,,,
98.82778434992166,2.087682165584633,197.91285902253324,134.6970978863175,96.0,0.0,0,0.0,,,,,,
99.82778434992166,2.0980988322512997,196.91285902253324,134.6970978863175,96.0,0.0,0,0.0,,,,,,
100.82778434992166,2.108515498917966,195.91285902253324,134.6970978863175,96.0,0.0,0,0.0,,,,,,
101.82778434992166,2.1189321655846327,194.91285902253324,134.6970978863175,96.0,0.0,0,0.0,,,,,,
102.82778434992166,2.1293488322512992,193.91285902253324,134.6970978863175,96.0,0.0,0,0.0,,,,,,
103.82778434992166,2.1397654989179657,192.91285902253324,134.6970978863175,96.0,0.0,0,0.0,,,,,,
104.82778434992166,2.1501821655846323,191.91285902253324,134.6970978863175,96.0,0.0,0,0.0,,,,,,
105.82778434992166,2.160598832251299,190.91285902253324,134.6970978863175,96.0,0.0,0,0.0,,,,,,
106.82778434992166,2.1710154989179653,189.91285902253324,134.6970978863175,96.0,0.0,0,0.0,,,,,,
107.82778434992166,2.181432165584632,188.91285902253324,134.6970978863175,96.0,0.0,0,0.0,,,,,,
108.82778434992166,2.1918488322512983,187.91285902253324,134.6970978863175,96.0,0.0,0,0.0,,,,,,
109.82778434992166,2.202265498917965,186.91285902253324,134.6970978863175,96.0,0.0,0,0.0,,,,,,
110.82778434992166,2.2126821655846314,185.91285902253324,134.6970978863175,96.0,0.0,0,0.0,,,,,,
111.82778434992166,2.223098832251298,184.91285902253324,134.6970978863175,96.0,0.0,0,-0.0,,,,,,
112.82778434992166,2.2335154989179644,183.91285902253324,134.6970978863175,96.0,0.0,0,-0.0,,,,,,
113.82778434992166,2.243932165584631,182.91285902253324,134.6970978863175,96.0,0.0,0,-0.0,,,,,,
114.82778434992166,2.2543488322512975,181.91285902253324,134.6970978863175,96.0,0.0,0,-0.0,,,,,,
115.82778434992166,2.264765498917964,180.91285902253324,134.6970978863175,96.0,0.0,0,-0.0,,,,,,
116.82778434992166,2.2751821655846305,179.91285902253324,134.6970978863175,96.0,0.0,0,-0.0,,,,,,
117.82778434992166,2.285598832251297,178.91285902253324,134.6970978863175,96.0,0.0,0,-0.0,,,,,,
118.82778434992166,2.2960154989179635,177.91285902253324,134.6970978863175,96.0,0.0,0,-0.0,,,,,,
119.82778434992166,2.30643216558463,176.91285902253324,134.6970978863175,96.0,0.0,0,-0.0,,,,,,
120.82778434992166,2.3168488322512966,175.91285902253324,134.6970978863175,96.0,0.0,0,-0.0,,,,,,
121.82778434992166,2.327265498917963,174.91285902253324,134.6970978863175,96.0,0.0,0,-0.0,,,,,,
122.82778434992166,2.3376821655846296,173.91285902253324,134.6970978863175,96.0,0.0,0,-0.0,,,,,,
123.82778434992166,2.348098832251296,172.91285902253324,134.6970978863175,96.0,0.0,0,-0.0,,,,,,
124.82778434992166,2.3585154989179626,171.91285902253324,134.6970978863175,96.0,0.0,0,-0.0,,,,,,
125.82778434992166,2.368932165584629,170.91285902253324,134.6970978863175,96.0,0.0,0,-0.0,,,,,,
126.82778434992166,2.3793488322512957,169.91285902253324,134.6970978863175,96.0,0.0,0,-0.0,,,,,,
127.82778434992166,2.389765498917962,168.91285902253324,134.6970978863175,96.0,0.0,0,-0.0,,,,,,
128.82778434992167,2.400182165584629,167.91285902253324,134.6970978863175,96.0,0.0,0,-0.0,,,,,,
129.82778434992167,2.4105988322512957,166.91285902253324,134.6970978863175,96.0,0.0,0,-0.0,,,,,,
130.82778434992167,2.421015498917962,165.91285902253324,134.6970978863175,96.0,0.0,0,-0.0,,,,,,
131.82778434992167,2.4314321655846287,164.91285902253324,134.6970978863175,96.0,0.0,0,0.0,,,,,,
132.82778434992167,2.4418488322512952,163.91285902253324,134.6970978863175,96.0,0.0,0,0.0,,,,,,
133.82778434992167,2.4522654989179618,162.91285902253324,134.6970978863175,96.0,0.0,0,0.0,,,,,,
134.82778434992167,2.4626821655846283,161.91285902253324,134.6970978863175,96.0,0.0,0,0.0,,,,,,
135.82778434992167,2.473098832251295,160.91285902253324,134.6970978863175,96.0,0.0,0,0.0,,,,,,
136.82778434992167,2.4835154989179613,159.91285902253324,134.6970978863175,96.0,0.0,0,0.0,,,,,,
137.82778434992167,2.493932165584628,158.91285902253324,134.6970978863175,96.0,0.0,0,0.0,,,,,,
138.82778434992167,2.5043488322512943,157.91285902253324,134.6970978863175,96.0,0.0,0,0.0,,,,,,
139.82778434992167,2.514765498917961,156.91285902253324,134.6970978863175,96.0,0.0,0,0.0,,,,,,
140.82778434992167,2.5251821655846274,155.91285902253324,134.6970978863175,96.0,0.0,0,0.0,,,,,,
141.82778434992167,2.535598832251294,154.91285902253324,134.6970978863175,96.0,0.0,0,0.0,,,,,,
142.82778434992167,2.5460154989179604,153.91285902253324,134.6970978863175,96.0,0.0,0,0.0,,,,,,
143.82778434992167,2.556432165584627,152.91285902253324,134.6970978863175,96.0,0.0,0,0.0,,,,,,
144.82778434992167,2.5668488322512935,151.91285902253324,134.6970978863175,96.0,0.0,0,0.0,,,,,,
145.82778434992167,2.57726549891796,150.91285902253324,134.6970978863175,96.0,0.0,0,0.0,,,,,,
146.82778434992167,2.5876821655846265,149.91285902253324,134.6970978863175,96.0,0.0,0,0.0,,,,,,
147.82778434992167,2.598098832251293,148.91285902253324,134.6970978863175,96.0,0.0,0,0.0,,,,,,
148.82778434992167,2.6085154989179595,147.91285902253324,134.6970978863175,96.0,0.0,0,0.0,,,,,,
149.82778434992167,2.618932165584626,146.91285902253324,134.6970978863175,96.0,0.0,0,0.0,,,,,,
150.82778434992167,2.6293488322512926,145.91285902253324,134.6970978863175,96.0,0.0,0,0.0,,,,,,
151.82778434992167,2.639765498917959,144.91285902253324,134.6970978863175,96.0,0.0,0,0.0,,,,,,
152.82778434992167,2.6501821655846256,143.91285902253324,134.6970978863175,96.0,0.0,0,0.0,,,,,,
153.82778434992167,2.660598832251292,142.91285902253324,134.6970978863175,96.0,0.0,0,0.0,,,,,,
154.82778434992167,2.6710154989179586,141.91285902253324,134.6970978863175,96.0,0.0,0,0.0,,,,,,
155.82778434992167,2.681432165584625,140.91285902253324,134.6970978863175,96.0,0.0,0,0.0,,,,,,
156.74579284364472,2.6910392088635318,140.0,134.60000000000002,95.1115557767149,0.0,0,0.0,,,,,,
157.74579284364472,2.7016069437026125,139.00323604498814,134.68038418992035,94.14376056636564,0.0,0,0.0,,,,,,
158.74579284364472,2.712283875831099,138.00647208997628,134.76076837984067,93.17596535601639,0.0,0,0.0,,,,,,
159.74579284364472,2.7230722855005003,137.00970813496443,134.841152569761,92.20817014566714,0.0,0,0.0,,,,,,
160.74579284364472,2.733974525140052,136.01294417995257,134.92153675968132,91.24037493531789,0.0,0,0.0,,,,,,
161.74579284364472,2.7449930224354273,135.0161802249407,135.00192094960164,90.27257972496864,0.0,0,0.0,,,,,,
162.74579284364472,2.7561302835733716,134.01941626992885,135.08230513952196,89.30478451461939,0.0,0,0.0,,,,,,
163.74579284364472,2.7673888966631006,133.022652314917,135.1626893294423,88.33698930427013,0.0,0,0.0,,,,,,
164.74579284364472,2.7787715353461544,132.02588835990514,135.2430735193626,87.36919409392088,0.0,0,0.0,,,,,,
165.74579284364472,2.7902809626072966,131.02912440489328,135.32345770928293,86.40139888357163,0.0,0,0.0,,,,,,
166.74579284364472,2.8019200348000473,130.03236044988142,135.40384189920326,85.43360367322238,0.0,0,0.0,,,,,,
167.74579284364472,2.813691705901522,129.03559649486957,135.48422608912358,84.46580846287313,0.0,0,0.0,,,,,,
168.74579284364472,2.8255990320124322,128.0388325398577,135.5646102790439,83.49801325252388,0.0,0,0.0,,,,,,
169.74579284364472,2.8376451761193944,127.04206858484586,135.64499446896423,82.53021804217462,0.0,0,0.0,,,,,,
170.74579284364472,2.8498334131381142,126.04530462983402,135.72537865888455,81.56242283182537,0.0,0,0.0,,,,,,
171.74579284364472,2.86216713525756,125.04854067482218,135.80576284880487,80.59462762147612,0.0,0,0.0,,,,,,
172.74579284364472,2.874649857606945,124.05177671981033,135.8861470387252,79.62683241112687,0.0,0,0.0,,,,,,
173.74579284364472,2.8872852242691978,123.05501276479849,135.96653122864552,78.65903720077762,0.0,0,0.0,,,,,,
174.74579284364472,2.900077014666669,122.05824880978665,136.04691541856585,77.69124199042837,0.0,0,0.0,,,,,,
175.74579284364472,2.9130291503470533,121.0614848547748,136.12729960848617,76.72344678007912,0.0,0,0.0,,,,,,
176.74579284364472,2.9261457022000275,120.06472089976296,136.2076837984065,75.75565156972986,0.0,0,0.0,,,,,,
177.74579284364472,2.939430898137814,119.06795694475112,136.28806798832682,74.78785635938061,0.0,0,0.0,,,,,,
178.74579284364472,2.952889131275943,118.07119298973927,136.36845217824714,73.82006114903136,0.0,0,0.0,,,,,,
179.74579284364472,2.9665249686538004,117.07442903472743,136.44883636816746,72.85226593868211,0.0,0,0.0,,,,,,
