Distance (in),Time (s),X (in),Y (in),Velocity (in/s),Orientation (deg),Touch,Rotational Velocity (deg/s),Way X (in),Way Y (in),Way Velocity (in/s),Way Orientation (deg),Way Turn Radius (in),Touch this Point
0.0,0.0,74.0,275.0,0.0,0.0,0,0.0,74.0,275.0,0.0,0.0,3.0,0
0.9999999999999869,0.1666666666666645,74.92307692307692,275.38461538461536,12.0,0.0,0,0.0,110.0,290.0,192.0,0.0,3.0,0
1.9999999999999738,0.24999999999999672,75.84615384615384,275.7692307692307,12.0,0.0,0,0.0,210.0,290.0,192.0,0.0,3.0,0
2.999999999999961,0.333333333333329,76.76923076923076,276.1538461538461,12.0,0.0,0,0.0,230.0,290.0,0.0,0.0,3.0,0
3.9999999999999476,0.4166666666666612,77.69230769230768,276.53846153846143,12.0,0.0,0,0.0,,,,,,
4.999999999999934,0.4986222130099577,78.6153846153846,276.9230769230768,12.403473458920605,0.0,0,0.0,,,,,,
5.999999999999921,0.5719154652672177,79.53846153846152,277.30769230769215,14.884168150704724,0.0,0,-0.0,,,,,,
6.999999999999908,0.6339328325618223,80.46153846153844,277.6923076923075,17.364862842488844,0.0,0,-0.0,,,,,,
7.999999999999894,0.6876812175504796,81.38461538461536,278.07692307692287,19.845557534272963,0.0,0,-0.0,,,,,,
8.999999999999881,0.7351062631287066,82.30769230769228,278.4615384615382,22.326252226057083,0.0,0,-0.0,,,,,,
9.999999999999869,0.7775391986460677,83.2307692307692,278.8461538461536,24.806946917841206,0.0,0,-0.0,,,,,,
10.999999999999856,0.8159309022093943,84.15384615384612,279.23076923076894,27.28764160962533,0.0,0,-0.0,,,,,,
11.999999999999844,0.8509841967672144,85.07692307692304,279.6153846153843,29.76833630140945,0.0,0,-0.0,,,,,,
12.999999999999831,0.8832332277604088,85.99999999999996,279.99999999999966,32.24903099319357,0.0,0,-0.0,,,,,,
13.999999999999819,0.9130934416429962,86.92307692307688,280.384615384615,34.729725684977694,0.0,0,0.0,,,,,,
14.999999999999806,0.9408943304302327,87.8461538461538,280.7692307692304,37.21042037676182,0.0,0,0.0,,,,,,
15.999999999999794,0.9669016134892605,88.76923076923072,281.15384615384573,39.69111506854594,0.0,0,0.0,,,,,,
16.99999999999978,0.9913326975750139,89.69230769230764,281.5384615384611,42.171809760330056,0.0,0,0.0,,,,,,
17.999999999999766,1.0143677197130099,90.61538461538456,281.92307692307645,44.65250445211417,0.0,0,0.0,,,,,,
18.99999999999975,1.0361576055192223,91.53846153846148,282.3076923076918,47.13319914389829,0.0,0,0.0,,,,,,
19.999999999999737,1.0568300612840904,92.4615384615384,282.69230769230717,49.613893835682404,0.0,0,0.0,,,,,,
20.999999999999723,1.0764941045726235,93.38461538461532,283.0769230769225,52.09458852746652,0.0,0,0.0,,,,,,
21.99999999999971,1.0952435411965737,94.30769230769224,283.4615384615379,54.575283219250636,0.0,0,0.0,,,,,,
22.999999999999694,1.113159669526126,95.23076923076916,283.84615384615324,57.05597791103475,0.0,0,0.0,,,,,,
23.99999999999968,1.1303134094161231,96.15384615384608,284.2307692307686,59.53667260281887,0.0,0,0.0,,,,,,
24.999999999999666,1.1467669966575489,97.076923076923,284.61538461538396,62.017367294602984,0.0,0,0.0,,,,,,
25.999999999999652,1.1625753451836245,97.99999999999991,284.9999999999993,64.4980619863871,0.0,0,0.0,,,,,,
26.999999999999638,1.177787152255886,98.92307692307683,285.3846153846147,66.97875667817122,0.0,0,0.0,,,,,,
27.999999999999623,1.1924458027073381,99.84615384615375,285.76923076923003,69.45945136995535,0.0,0,0.0,,,,,,
28.99999999999961,1.2065901145464584,100.76923076923067,286.1538461538454,71.94014606173947,0.0,0,0.0,,,,,,
29.999999999999595,1.2202549581876425,101.6923076923076,286.53846153846075,74.42084075352359,0.0,0,0.0,,,,,,
30.99999999999958,1.23347177416846,102.61538461538451,286.9230769230761,76.90153544530772,0.0,0,0.0,,,,,,
31.999999999999567,1.246269008689569,103.53846153846143,287.30769230769147,79.38223013709184,0.0,0,0.0,,,,,,
32.99999999999955,1.2586724821484898,104.46153846153835,287.6923076923068,81.86292482887596,0.0,0,0.0,,,,,,
33.99999999999954,1.2707057026683384,105.38461538461527,288.0769230769222,84.34361952066008,0.0,0,0.0,,,,,,
34.999999999999524,1.2823901341876116,106.3076923076922,288.46153846153754,86.82431421244421,0.0,0,0.0,,,,,,
35.99999999999951,1.293745426790849,107.23076923076911,288.8461538461529,89.30500890422833,0.0,0,0.0,,,,,,
36.999999999999496,1.3047896154871486,108.15384615384603,289.23076923076826,91.78570359601245,0.0,0,0.0,,,,,,
37.99999999999948,1.31553929248488,109.07692307692295,289.6153846153836,94.26639828779658,0.0,0,0.0,,,,,,
38.99999999999947,1.32600975709306,109.99999999999987,289.999999999999,96.7470929795807,0.0,0,0.0,,,,,,
39.0000000000005,1.3260097570930707,110.0,290.0,96.74709297958158,0.0,0,0.0,,,,,,
40.0000000000005,1.3363003009759669,111.0,290.0,97.60609405887871,0.0,0,0.0,,,,,,
41.0000000000005,1.3465006777278514,112.0,290.0,98.46509513817584,0.0,0,0.0,,,,,,
42.0000000000005,1.3566124537369042,113.0,290.0,99.32409621747297,0.0,0,0.0,,,,,,
43.0000000000005,1.3666371549257224,114.0,290.0,100.1830972967701,0.0,0,0.0,,,,,,
44.0000000000005,1.3765762681332538,115.0,290.0,101.04209837606723,0.0,0,0.0,,,,,,
45.0000000000005,1.3864312424382377,116.0,290.0,101.90109945536436,0.0,0,0.0,,,,,,
46.0000000000005,1.3962034904270966,117.0,290.0,102.76010053466149,0.0,0,0.0,,,,,,
47.0000000000005,1.4058943894090576,118.0,290.0,103.61910161395862,0.0,0,0.0,,,,,,
48.0000000000005,1.415505282581113,119.0,290.0,104.47810269325575,0.0,0,0.0,,,,,,
49.0000000000005,1.4250374801452868,120.0,290.0,105.33710377255288,0.0,0,0.0,,,,,,
50.0000000000005,1.434492260380532,121.0,290.0,106.19610485185001,0.0,0,0.0,,,,,,
51.0000000000005,1.4438708706714491,122.0,290.0,107.05510593114714,0.0,0,0.0,,,,,,
52.0000000000005,1.4531745284958997,123.0,290.0,107.91410701044427,0.0,0,0.0,,,,,,
53.0000000000005,1.4624044223734656,124.0,290.0,108.7731080897414,0.0,0,0.0,,,,,,
54.0000000000005,1.4715617127766076,125.0,290.0,109.63210916903853,0.0,0,0.0,,,,,,
55.0000000000005,1.4806475330062665,126.0,290.0,110.49111024833566,0.0,0,0.0,,,,,,
56.0000000000005,1.489662990033558,127.0,290.0,111.35011132763279,0.0,0,0.0,,,,,,
57.0000000000005,1.4986091653091291,128.0,290.0,112.20911240692992,0.0,0,0.0,,,,,,
58.0000000000005,1.507487115541651,129.0,290.0,113.06811348622705,0.0,0,0.0,,,,,,
59.0000000000005,1.5162978734468524,130.0,290.0,113.92711456552418,0.0,0,0.0,,,,,,
60.0000000000005,1.5250424484684224,131.0,290.0,114.78611564482131,0.0,0,0.0,,,,,,
61.0000000000005,1.533721827472037,132.0,290.0,115.64511672411844,0.0,0,0.0,,,,,,
62.0000000000005,1.5423369754137064,133.0,290.0,116.50411780341557,0.0,0,0.0,,,,,,
63.0000000000005,1.550888835983574,134.0,290.0,117.3631188827127,0.0,0,0.0,,,,,,
64.0000000000005,1.5593783322262407,135.0,290.0,118.22211996200983,0.0,0,0.0,,,,,,
65.0000000000005,1.5678063671386337,136.0,290.0,119.08112104130696,0.0,0,0.0,,,,,,
66.0000000000005,1.5761738242463905,137.0,290.0,119.94012212060409,0.0,0,0.0,,,,,,
67.0000000000005,1.5844815681596744,138.0,290.0,120.79912319990122,0.0,0,-0.0,,,,,,
68.0000000000005,1.5927304451093,139.0,290.0,121.65812427919835,0.0,0,-0.0,,,,,,
69.0000000000005,1.6009212834639965,140.0,290.0,122.51712535849548,0.0,0,-0.0,,,,,,
70.0000000000005,1.609054894229602,141.0,290.0,123.3761264377926,0.0,0,-0.0,,,,,,
71.0000000000005,1.617132071530939,142.0,290.0,124.23512751708974,0.0,0,-0.0,,,,,,
72.0000000000005,1.6251535930770897,143.0,290.0,125.09412859638687,0.0,0,-0.0,,,,,,
73.0000000000005,1.6331202206107491,144.0,290.0,125.953129675684,0.0,0,-0.0,,,,,,
74.0000000000005,1.6410327003423086,145.0,290.0,126.81213075498113,0.0,0,-0.0,,,,,,
75.0000000000005,1.6488917633692868,146.0,290.0,127.67113183427826,0.0,0,-0.0,,,,,,
76.0000000000005,1.656698126081697,147.0,290.0,128.5301329135754,0.0,0,-0.0,,,,,,
77.0000000000005,1.6644524905539155,148.0,290.0,129.3891339928725,0.0,0,-0.0,,,,,,
78.0000000000005,1.672155544923583,149.0,290.0,130.24813507216962,0.0,0,-0.0,,,,,,
79.0000000000005,1.6798079637580539,150.0,290.0,131.10713615146673,0.0,0,-0.0,,,,,,
80.0000000000005,1.6874104084088797,151.0,290.0,131.96613723076385,0.0,0,-0.0,,,,,,
81.0000000000005,1.6949635273547932,152.0,290.0,132.82513831006096,0.0,0,-0.0,,,,,,
82.0000000000005,1.7024679565336365,153.0,290.0,133.68413938935808,0.0,0,-0.0,,,,,,
83.0000000000005,1.7099243196636609,154.0,290.0,134.5431404686552,0.0,0,-0.0,,,,,,
84.0000000000005,1.7173332285546004,155.0,290.0,135.4021415479523,0.0,0,-0.0,,,,,,
85.0000000000005,1.7246952834089109,156.0,290.0,136.26114262724943,0.0,0,-0.0,,,,,,
86.0000000000005,1.7320110731135434,157.0,290.0,137.12014370654654,0.0,0,-0.0,,,,,,
87.0000000000005,1.7392811755226063,158.0,290.0,137.97914478584366,0.0,0,-0.0,,,,,,
88.0000000000005,1.7465061577312562,159.0,290.0,138.83814586514077,0.0,0,-0.0,,,,,,
89.0000000000005,1.7536865763411424,160.0,290.0,139.6971469444379,0.0,0,-0.0,,,,,,
90.0000000000005,1.7608229777177156,161.0,290.0,140.556148023735,0.0,0,-0.0,,,,,,
91.0000000000005,1.7679158982396963,162.0,290.0,141.41514910303212,0.0,0,-0.0,,,,,,
92.0000000000005,1.774965864540992,163.0,290.0,142.27415018232924,0.0,0,-0.0,,,,,,
93.0000000000005,1.7819733937453306,164.0,290.0,143.13315126162635,0.0,0,-0.0,,,,,,
94.0000000000005,1.788938993693876,165.0,290.0,143.99215234092347,0.0,0,-0.0,,,,,,
95.0000000000005,1.7958631631660738,166.0,290.0,144.85115342022058,0.0,0,-0.0,,,,,,
96.0000000000005,1.8027463920939681,167.0,290.0,145.7101544995177,0.0,0,0.0,,,,,,
97.0000000000005,1.8095891617702207,168.0,290.0,146.56915557881482,0.0,0,0.0,,,,,,
98.0000000000005,1.8163919450500496,169.0,290.0,147.42815665811193,0.0,0,0.0,,,,,,
99.0000000000005,1.8231552065473051,170.0,290.0,148.28715773740905,0.0,0,0.0,,,,,,
100.0000000000005,1.8298794028248802,171.0,290.0,149.14615881670616,0.0,0,0.0,,,,,,
101.0000000000005,1.8365649825796553,172.0,290.0,150.00515989600328,0.0,0,0.0,,,,,,
102.0000000000005,1.843212386822162,173.0,290.0,150.8641609753004,0.0,0,0.0,,,,,,
103.0000000000005,1.8498220490511457,174.0,290.0,151.7231620545975,0.0,0,0.0,,,,,,
104.0000000000005,1.856394395423202,175.0,290.0,152.58216313389462,0.0,0,0.0,,,,,,
105.0000000000005,1.8629298449176508,176.0,290.0,153.44116421319174,0.0,0,0.0,,,,,,
106.0000000000005,1.8694288094968075,177.0,290.0,154.30016529248886,0.0,0,0.0,,,,,,
107.0000000000005,1.8758916942618071,178.0,290.0,155.15916637178597,0.0,0,0.0,,,,,,
108.0000000000005,1.8823188976041254,179.0,290.0,156.0181674510831,0.0,0,0.0,,,,,,
109.0000000000005,1.8887108113529405,180.0,290.0,156.8771685303802,0.0,0,0.0,,,,,,
110.0000000000005,1.8950678209184715,181.0,290.0,157.73616960967732,0.0,0,0.0,,,,,,
111.0000000000005,1.9013903054314247,182.0,290.0,158.59517068897443,0.0,0,0.0,,,,,,
112.0000000000005,1.9076786378786734,183.0,290.0,159.45417176827155,0.0,0,0.0,,,,,,
113.0000000000005,1.913933185235292,184.0,290.0,160.31317284756867,0.0,0,0.0,,,,,,
114.0000000000005,1.9201543085930646,185.0,290.0,161.17217392686578,0.0,0,0.0,,,,,,
115.0000000000005,1.9263423632855747,186.0,290.0,162.0311750061629,0.0,0,0.0,,,,,,
116.0000000000005,1.9324976990099914,187.0,290.0,162.89017608546,0.0,0,0.0,,,,,,
117.0000000000005,1.9386206599456504,188.0,290.0,163.74917716475713,0.0,0,0.0,,,,,,
118.0000000000005,1.9447115848695338,189.0,290.0,164.60817824405424,0.0,0,0.0,,,,,,
119.0000000000005,1.9507708072687449,190.0,290.0,165.46717932335136,0.0,0,0.0,,,,,,
120.0000000000005,1.9567986554500696,191.0,290.0,166.32618040264848,0.0,0,0.0,,,,,,
121.0000000000005,1.9627954526467182,192.0,290.0,167.1851814819456,0.0,0,0.0,,,,,,
122.0000000000005,1.96876151712233,193.0,290.0,168.0441825612427,0.0,0,0.0,,,,,,
123.0000000000005,1.9746971622723275,194.0,290.0,168.90318364053982,0.0,0,0.0,,,,,,
124.0000000000005,1.980602696722699,195.0,290.0,169.76218471983694,0.0,0,0.0,,,,,,
125.0000000000005,1.98647842442629,196.0,290.0,170.62118579913405,0.0,0,0.0,,,,,,
126.0000000000005,1.9923246447566745,197.0,290.0,171.48018687843117,0.0,0,0.0,,,,,,
127.0000000000005,1.9981416525996822,198.0,290.0,172.33918795772829,0.0,0,0.0,,,,,,
128.0000000000005,2.0039297384426513,199.0,290.0,173.19818903702543,0.0,0,0.0,,,,,,
129.0000000000005,2.009689188461471,200.0,290.0,174.05719011632254,0.0,0,0.0,,,,,,
130.0000000000005,2.015420284605484,201.0,290.0,174.91619119561966,0.0,0,0.0,,,,,,
131.0000000000005,2.021123304680307,202.0,290.0,175.77519227491678,0.0,0,0.0,,,,,,
132.0000000000005,2.0267985224286353,203.0,290.0,176.6341933542139,0.0,0,0.0,,,,,,
133.0000000000005,2.032446207609085,204.0,290.0,177.493194433511,0.0,0,0.0,,,,,,
134.0000000000005,2.038066626073131,205.0,290.0,178.35219551280812,0.0,0,0.0,,,,,,
135.0000000000005,2.0436600398402014,206.0,290.0,179.21119659210524,0.0,0,0.0,,,,,,
136.0000000000005,2.049226707170971,207.0,290.0,180.07019767140235,0.0,0,0.0,,,,,,
137.0000000000005,2.0547668826389143,208.0,290.0,180.92919875069947,0.0,0,0.0,,,,,,
138.0000000000005,2.060280817200162,209.0,290.0,181.78819982999659,0.0,0,0.0,,,,,,
139.0000000000005,2.065922773205008,210.0,290.0,172.69878983849677,0.0,0,0.0,,,,,,
140.0000000000005,2.0718696998047106,211.0,290.0,163.60937984699694,0.0,0,0.0,,,,,,
141.0000000000005,2.078156450781539,212.0,290.0,154.51996985549712,0.0,0,0.0,,,,,,
142.0000000000005,2.0848242169690847,213.0,290.0,145.4305598639973,0.0,0,0.0,,,,,,
143.0000000000005,2.0919221616203427,214.0,290.0,136.34114987249748,0.0,0,0.0,,,,,,
144.0000000000005,2.0995096196958256,215.0,290.0,127.25173988099765,0.0,0,0.0,,,,,,
145.0000000000005,2.1076591117028256,216.0,290.0,118.16232988949781,0.0,0,0.0,,,,,,
146.0000000000005,2.1164605630703854,217.0,290.0,109.07291989799798,0.0,0,0.0,,,,,,
147.0000000000005,2.1260273580351248,218.0,290.0,99.98350990649814,0.0,0,0.0,,,,,,
148.0000000000005,2.136505276329839,219.0,290.0,90.8940999149983,0.0,0,0.0,,,,,,
149.0000000000005,2.148086133392418,220.0,290.0,81.80468992349847,0.0,0,0.0,,,,,,
150.0000000000005,2.1610294442270654,221.0,290.0,72.71527993199864,0.0,0,0.0,,,,,,
151.0000000000005,2.1756985298396656,222.0,290.0,63.62586994049881,0.0,0,0.0,,,,,,
152.0000000000005,2.192624397854204,223.0,290.0,54.53645994899898,0.0,0,0.0,,,,,,
153.0000000000005,2.2126276964168405,224.0,290.0,45.44704995749915,0.0,0,0.0,,,,,,
154.0000000000005,2.2370761724378405,225.0,290.0,36.357639965999326,0.0,0,-0.0,,,,,,
155.0000000000005,2.2685099273219835,226.0,290.0,27.268229974499498,0.0,0,-0.0,,,,,,
156.0000000000005,2.3125171841597836,227.0,290.0,18.17881998299967,0.0,0,-0.0,,,,,,
157.0000000000005,2.378788827687484,228.0,290.0,12.0,0.0,0,0.0,,,,,,
158.0000000000005,2.4621221610208175,229.0,290.0,12.0,0.0,0,0.0,,,,,,
159.0000000000005,2.628788827687484,230.0,290.0,0.0,0.0,0,0.0,,,,,,
