Distance (in),Time (s),X (in),Y (in),Velocity (in/s),Orientation (deg),Touch,Rotational Velocity (deg/s),Way X (in),Way Y (in),Way Velocity (in/s),Way Orientation (deg),Way Turn Radius (in),Touch this Point
0.0,0.0,282.0,279.6,12.0,0.0,0,0.0,282.0,279.6,12.0,0.0,3.0,0.0
1.0000000000000007,0.07696458881488226,281.00701172580506,279.71821288978515,13.985976548389889,0.0,0,0.0,240.0,284.6,96.0,0.0,10.0,0.0
2.0000000000000013,0.14372487644785878,280.0140234516101,279.8364257795703,15.971953096779778,0.0,0,0.0,130.0,284.6,96.0,0.0,10.0,0.0
3.0000000000000018,0.20266996668618392,279.0210351774152,279.9546386693554,17.957929645169667,0.0,0,0.0,74.0,275.6,12.0,0.0,3.0,0.0
4.000000000000003,0.2554378592101746,278.02804690322023,280.07285155914053,19.943906193559556,0.0,0,0.0,,,,,,
5.0000000000000036,0.30320043457874846,277.0350586290253,280.19106444892566,21.929882741949445,0.0,0,0.0,,,,,,
6.000000000000004,0.34682498751087065,276.04207035483034,280.3092773387108,23.915859290339334,0.0,0,0.0,,,,,,
7.000000000000005,0.38697136511461905,275.0490820806354,280.4274902284959,25.901835838729223,0.0,0,-0.0,,,,,,
8.000000000000005,0.4241532405491364,274.05609380644046,280.54570311828104,27.887812387119112,0.0,0,-0.0,,,,,,
9.000000000000005,0.45877831939397273,273.0631055322455,280.66391600806617,29.873788935509,0.0,0,-0.0,,,,,,
10.000000000000005,0.4911756115766376,272.0701172580506,280.7821288978513,31.85976548389889,0.0,0,-0.0,,,,,,
11.000000000000005,0.5216144602455602,271.07712898385563,280.9003417876364,33.845742032288776,0.0,0,-0.0,,,,,,
12.000000000000005,0.5503181469529341,270.0841407096607,281.01855467742155,35.83171858067866,0.0,0,-0.0,,,,,,
13.000000000000005,0.5774738281628622,269.09115243546574,281.1367675672067,37.81769512906855,0.0,0,-0.0,,,,,,
14.000000000000005,0.6032399294605248,268.0981641612708,281.2549804569918,39.80367167745843,0.0,0,-0.0,,,,,,
15.000000000000005,0.6277517400152385,267.10517588707586,281.37319334677693,41.78964822584832,0.0,0,-0.0,,,,,,
16.000000000000007,0.6511257085643481,266.1121876128809,281.49140623656206,43.77562477423821,0.0,0,-0.0,,,,,,
17.000000000000007,0.6734627865282812,265.119199338686,281.6096191263472,45.761601322628096,0.0,0,-0.0,,,,,,
18.000000000000007,0.694851061104601,264.12621106449103,281.7278320161323,47.74757787101798,0.0,0,0.0,,,,,,
19.000000000000007,0.7153678519235812,263.1332227902961,281.84604490591744,49.73355441940787,0.0,0,0.0,,,,,,
20.000000000000007,0.7350813972767541,262.14023451610115,281.96425779570257,51.71953096779775,0.0,0,0.0,,,,,,
21.000000000000007,0.7540522226969774,261.1472462419062,282.0824706854877,53.70550751618764,0.0,0,0.0,,,,,,
22.000000000000007,0.7723342610885309,260.15425796771126,282.2006835752728,55.69148406457752,0.0,0,0.0,,,,,,
23.000000000000007,0.7899757766348614,259.1612696935163,282.31889646505795,57.67746061296741,0.0,0,0.0,,,,,,
24.000000000000007,0.8070201323363705,258.1682814193214,282.4371093548431,59.663437161357294,0.0,0,0.0,,,,,,
25.000000000000007,0.8235064318968763,257.17529314512643,282.5553222446282,61.64941370974718,0.0,0,0.0,,,,,,
26.000000000000007,0.8394700598601901,256.1823048709315,282.6735351344133,63.635390258137065,0.0,0,0.0,,,,,,
27.000000000000007,0.8549431387569432,255.18931659673655,282.79174802419845,65.62136680652695,0.0,0,0.0,,,,,,
28.000000000000007,0.8699549181067278,254.1963283225416,282.9099609139836,67.60734335491684,0.0,0,0.0,,,,,,
29.000000000000007,0.8845321071122636,253.20334004834666,283.0281738037687,69.59331990330672,0.0,0,0.0,,,,,,
30.000000000000007,0.8986991605510881,252.21035177415172,283.14638669355384,71.5792964516966,0.0,0,0.0,,,,,,
31.000000000000007,0.9124785255494072,251.21736349995678,283.26459958333896,73.56527300008649,0.0,0,0.0,,,,,,
32.00000000000001,0.9258908554898982,250.22437522576183,283.3828124731241,75.55124954847638,0.0,0,0.0,,,,,,
33.00000000000001,0.9389551961698157,249.2313869515669,283.5010253629092,77.53722609686626,0.0,0,0.0,,,,,,
34.00000000000001,0.9516891484200276,248.23839867737195,283.61923825269434,79.52320264525615,0.0,0,0.0,,,,,,
35.00000000000001,0.9641090106686082,247.245410403177,283.7374511424795,81.50917919364603,0.0,0,0.0,,,,,,
36.00000000000001,0.9762299043456113,246.25242212898206,283.8556640322646,83.49515574203592,0.0,0,0.0,,,,,,
37.00000000000001,0.9880658845490335,245.25943385478712,283.9738769220497,85.4811322904258,0.0,0,0.0,,,,,,
38.00000000000001,0.9996300380029298,244.26644558059218,284.09208981183485,87.46710883881569,0.0,0,0.0,,,,,,
39.00000000000001,1.0109345700194667,243.27345730639723,284.21030270162,89.45308538720558,0.0,0,0.0,,,,,,
40.00000000000001,1.0219908819135979,242.2804690322023,284.3285155914051,91.43906193559546,0.0,0,0.0,,,,,,
41.00000000000001,1.0328096401011566,241.28748075800735,284.44672848119023,93.42503848398535,0.0,0,0.0,,,,,,
42.00000000000001,1.043400837929948,240.2944924838124,284.56494137097536,95.41101503237523,0.0,0,0.0,,,,,,
42.29657196511318,1.0465031977048966,240.0,284.6,95.7801985128535,0.0,0,0.0,,,,,,
43.29657196511318,1.056931803032813,239.0,284.6,96.0,0.0,0,0.0,,,,,,
44.29657196511318,1.0673484696994797,238.0,284.6,96.0,0.0,0,0.0,,,,,,
45.29657196511318,1.0777651363661465,237.0,284.6,96.0,0.0,0,0.0,,,,,,
46.29657196511318,1.0881818030328132,236.0,284.6,96.0,0.0,0,0.0,,,,,,
47.29657196511318,1.09859846969948,235.0,284.6,96.0,0.0,0,0.0,,,,,,
48.29657196511318,1.1090151363661467,234.0,284.6,96.0,0.0,0,0.0,,,,,,
49.29657196511318,1.1194318030328134,233.0,284.6,96.0,0.0,0,0.0,,,,,,
50.29657196511318,1.1298484696994802,232.0,284.6,96.0,0.0,0,0.0,,,,,,
51.29657196511318,1.140265136366147,231.0,284.6,96.0,0.0,0,0.0,,,,,,
52.29657196511318,1.1506818030328136,230.0,284.6,96.0,0.0,0,0.0,,,,,,
53.29657196511318,1.1610984696994804,229.0,284.6,96.0,0.0,0,0.0,,,,,,
54.29657196511318,1.1715151363661471,228.0,284.6,96.0,0.0,0,0.0,,,,,,
55.29657196511318,1.1819318030328139,227.0,284.6,96.0,0.0,0,0.0,,,,,,
56.29657196511318,1.1923484696994806,226.0,284.6,96.0,0.0,0,0.0,,,,,,
57.29657196511318,1.2027651363661473,225.0,284.6,96.0,0.0,0,0.0,,,,,,
58.29657196511318,1.213181803032814,224.0,284.6,96.0,0.0,0,0.0,,,,,,
59.29657196511318,1.2235984696994808,223.0,284.6,96.0,0.0,0,0.0,,,,,,
60.29657196511318,1.2340151363661476,222.0,284.6,96.0,0.0,0,0.0,,,,,,
61.29657196511318,1.2444318030328143,221.0,284.6,96.0,0.0,0,0.0,,,,,,
62.29657196511318,1.254848469699481,220.0,284.6,96.0,0.0,0,0.0,,,,,,
63.29657196511318,1.2652651363661478,219.0,284.6,96.0,0.0,0,0.0,,,,,,
64.29657196511317,1.2756818030328143,218.0,284.6,96.0,0.0,0,0.0,,,,,,
65.29657196511317,1.286098469699481,217.0,284.6,96.0,0.0,0,0.0,,,,,,
66.29657196511317,1.2965151363661478,216.0,284.6,96.0,0.0,0,0.0,,,,,,
67.29657196511317,1.3069318030328145,215.0,284.6,96.0,0.0,0,0.0,,,,,,
68.29657196511317,1.3173484696994813,214.0,284.6,96.0,0.0,0,0.0,,,,,,
69.29657196511317,1.327765136366148,213.0,284.6,96.0,0.0,0,0.0,,,,,,
70.29657196511317,1.3381818030328148,212.0,284.6,96.0,0.0,0,0.0,,,,,,
71.29657196511317,1.3485984696994815,211.0,284.6,96.0,0.0,0,0.0,,,,,,
72.29657196511317,1.3590151363661482,210.0,284.6,96.0,0.0,0,0.0,,,,,,
73.29657196511317,1.369431803032815,209.0,284.6,96.0,0.0,0,0.0,,,,,,
74.29657196511317,1.3798484696994817,208.0,284.6,96.0,0.0,0,0.0,,,,,,
75.29657196511317,1.3902651363661485,207.0,284.6,96.0,0.0,0,0.0,,,,,,
76.29657196511317,1.4006818030328152,206.0,284.6,96.0,0.0,0,0.0,,,,,,
77.29657196511317,1.411098469699482,205.0,284.6,96.0,0.0,0,0.0,,,,,,
78.29657196511317,1.4215151363661487,204.0,284.6,96.0,0.0,0,0.0,,,,,,
79.29657196511317,1.4319318030328154,203.0,284.6,96.0,0.0,0,0.0,,,,,,
80.29657196511317,1.4423484696994822,202.0,284.6,96.0,0.0,0,-0.0,,,,,,
81.29657196511317,1.452765136366149,201.0,284.6,96.0,0.0,0,-0.0,,,,,,
82.29657196511317,1.4631818030328156,200.0,284.6,96.0,0.0,0,-0.0,,,,,,
83.29657196511317,1.4735984696994824,199.0,284.6,96.0,0.0,0,-0.0,,,,,,
84.29657196511317,1.4840151363661491,198.0,284.6,96.0,0.0,0,-0.0,,,,,,
85.29657196511317,1.4944318030328159,197.0,284.6,96.0,0.0,0,-0.0,,,,,,
86.29657196511317,1.5048484696994826,196.0,284.6,96.0,0.0,0,-0.0,,,,,,
87.29657196511317,1.5152651363661493,195.0,284.6,96.0,0.0,0,-0.0,,,,,,
88.29657196511317,1.525681803032816,194.0,284.6,96.0,0.0,0,-0.0,,,,,,
89.29657196511317,1.5360984696994828,193.0,284.6,96.0,0.0,0,-0.0,,,,,,
90.29657196511317,1.5465151363661496,192.0,284.6,96.0,0.0,0,-0.0,,,,,,
91.29657196511317,1.5569318030328163,191.0,284.6,96.0,0.0,0,-0.0,,,,,,
92.29657196511317,1.567348469699483,190.0,284.6,96.0,0.0,0,-0.0,,,,,,
93.29657196511317,1.5777651363661498,189.0,284.6,96.0,0.0,0,-0.0,,,,,,
94.29657196511317,1.5881818030328165,188.0,284.6,96.0,0.0,0,-0.0,,,,,,
95.29657196511317,1.5985984696994833,187.0,284.6,96.0,0.0,0,-0.0,,,,,,
96.29657196511317,1.60901513636615,186.0,284.6,96.0,0.0,0,-0.0,,,,,,
97.29657196511317,1.6194318030328168,185.0,284.6,96.0,0.0,0,-0.0,,,,,,
98.29657196511317,1.6298484696994835,184.0,284.6,96.0,0.0,0,-0.0,,,,,,
99.29657196511317,1.6402651363661502,183.0,284.6,96.0,0.0,0,-0.0,,,,,,
100.29657196511317,1.650681803032817,182.0,284.6,96.0,0.0,0,-0.0,,,,,,
101.29657196511317,1.6610984696994837,181.0,284.6,96.0,0.0,0,-0.0,,,,,,
102.29657196511317,1.6715151363661505,180.0,284.6,96.0,0.0,0,-0.0,,,,,,
103.29657196511317,1.6819318030328172,179.0,284.6,96.0,0.0,0,-0.0,,,,,,
104.29657196511317,1.692348469699484,178.0,284.6,96.0,0.0,0,-0.0,,,,,,
105.29657196511317,1.7027651363661507,177.0,284.6,96.0,0.0,0,-0.0,,,,,,
106.29657196511317,1.7131818030328174,176.0,284.6,96.0,0.0,0,-0.0,,,,,,
107.29657196511317,1.7235984696994842,175.0,284.6,96.0,0.0,0,-0.0,,,,,,
108.29657196511317,1.734015136366151,174.0,284.6,96.0,0.0,0,-0.0,,,,,,
109.29657196511317,1.7444318030328176,173.0,284.6,96.0,0.0,0,-0.0,,,,,,
110.29657196511317,1.7548484696994844,172.0,284.6,96.0,0.0,0,-0.0,,,,,,
111.29657196511317,1.7652651363661511,171.0,284.6,96.0,0.0,0,-0.0,,,,,,
112.29657196511317,1.7756818030328179,170.0,284.6,96.0,0.0,0,-0.0,,,,,,
113.29657196511317,1.7860984696994846,169.0,284.6,96.0,0.0,0,0.0,,,,,,
114.29657196511317,1.7965151363661513,168.0,284.6,96.0,0.0,0,0.0,,,,,,
115.29657196511317,1.806931803032818,167.0,284.6,96.0,0.0,0,0.0,,,,,,
116.29657196511317,1.8173484696994848,166.0,284.6,96.0,0.0,0,0.0,,,,,,
117.29657196511317,1.8277651363661516,165.0,284.6,96.0,0.0,0,0.0,,,,,,
118.29657196511317,1.8381818030328183,164.0,284.6,96.0,0.0,0,0.0,,,,,,
119.29657196511317,1.848598469699485,163.0,284.6,96.0,0.0,0,0.0,,,,,,
120.29657196511317,1.8590151363661518,162.0,284.6,96.0,0.0,0,0.0,,,,,,
121.29657196511317,1.8694318030328185,161.0,284.6,96.0,0.0,0,0.0,,,,,,
122.29657196511317,1.8798484696994853,160.0,284.6,96.0,0.0,0,0.0,,,,,,
123.29657196511317,1.890265136366152,159.0,284.6,96.0,0.0,0,0.0,,,,,,
124.29657196511317,1.9006818030328188,158.0,284.6,96.0,0.0,0,0.0,,,,,,
125.29657196511317,1.9110984696994855,157.0,284.6,96.0,0.0,0,0.0,,,,,,
126.29657196511317,1.9215151363661522,156.0,284.6,96.0,0.0,0,0.0,,,,,,
127.29657196511317,1.931931803032819,155.0,284.6,96.0,0.0,0,0.0,,,,,,
128.29657196511317,1.9423484696994857,154.0,284.6,96.0,0.0,0,0.0,,,,,,
129.29657196511317,1.9527651363661525,153.0,284.6,96.0,0.0,0,0.0,,,,,,
130.29657196511317,1.9631818030328192,152.0,284.6,96.0,0.0,0,0.0,,,,,,
131.29657196511317,1.973598469699486,151.0,284.6,96.0,0.0,0,0.0,,,,,,
132.29657196511317,1.9840151363661527,150.0,284.6,96.0,0.0,0,0.0,,,,,,
133.29657196511317,1.9944318030328194,149.0,284.6,96.0,0.0,0,0.0,,,,,,
134.29657196511317,2.004848469699486,148.0,284.6,96.0,0.0,0,0.0,,,,,,
135.29657196511317,2.0152651363661525,147.0,284.6,96.0,0.0,0,0.0,,,,,,
136.29657196511317,2.025681803032819,146.0,284.6,96.0,0.0,0,0.0,,,,,,
137.29657196511317,2.0360984696994855,145.0,284.6,96.0,0.0,0,0.0,,,,,,
138.29657196511317,2.046515136366152,144.0,284.6,96.0,0.0,0,0.0,,,,,,
139.29657196511317,2.0569318030328185,143.0,284.6,96.0,0.0,0,0.0,,,,,,
140.29657196511317,2.067348469699485,142.0,284.6,96.0,0.0,0,0.0,,,,,,
141.29657196511317,2.0777651363661516,141.0,284.6,96.0,0.0,0,0.0,,,,,,
142.29657196511317,2.088181803032818,140.0,284.6,96.0,0.0,0,0.0,,,,,,
143.29657196511317,2.0985984696994846,139.0,284.6,96.0,0.0,0,0.0,,,,,,
144.29657196511317,2.109015136366151,138.0,284.6,96.0,0.0,0,0.0,,,,,,
145.29657196511317,2.1194318030328176,137.0,284.6,96.0,0.0,0,0.0,,,,,,
146.29657196511317,2.129848469699484,136.0,284.6,96.0,0.0,0,0.0,,,,,,
147.29657196511317,2.1402651363661507,135.0,284.6,96.0,0.0,0,0.0,,,,,,
148.29657196511317,2.150681803032817,134.0,284.6,96.0,0.0,0,0.0,,,,,,
149.29657196511317,2.1610984696994837,133.0,284.6,96.0,0.0,0,0.0,,,,,,
150.29657196511317,2.1715151363661502,132.0,284.6,96.0,0.0,0,0.0,,,,,,
151.29657196511317,2.1819318030328168,131.0,284.6,96.0,0.0,0,0.0,,,,,,
152.29657196511317,2.1924294434432645,130.0,284.6,94.51900444308495,0.0,0,0.0,,,,,,
153.29657196511317,2.20309286767091,129.0126696287233,284.44132190461625,93.0380088861699,0.0,0,0.0,,,,,,
154.29657196511317,2.2139273960129904,128.0253392574466,284.28264380923247,91.55701332925486,0.0,0,0.0,,,,,,
155.29657196511317,2.2249386090499037,127.0380088861699,284.1239657138487,90.07601777233981,0.0,0,0.0,,,,,,
156.29657196511317,2.2361323649050044,126.0506785148932,283.9652876184649,88.59502221542476,0.0,0,0.0,,,,,,
157.29657196511317,2.247514817959172,125.06334814361651,283.80660952308114,87.11402665850972,0.0,0,0.0,,,,,,
158.29657196511317,2.2590924391698177,124.07601777233981,283.64793142769736,85.63303110159467,0.0,0,0.0,,,,,,
159.29657196511317,2.2708720381622705,123.08868740106311,283.4892533323136,84.15203554467962,0.0,0,0.0,,,,,,
160.29657196511317,2.2828607872823587,122.10135702978641,283.3305752369298,82.67103998776457,0.0,0,0.0,,,,,,
161.29657196511317,2.2950662478228896,121.11402665850972,283.171897141546,81.19004443084953,0.0,0,0.0,,,,,,
162.29657196511317,2.307496398664147,120.12669628723302,283.01321904616225,79.70904887393448,0.0,0,0.0,,,,,,
163.29657196511317,2.320159667600042,119.13936591595632,282.85454095077847,78.22805331701943,0.0,0,0.0,,,,,,
164.29657196511317,2.3330649656579006,118.15203554467962,282.6958628553947,76.74705776010438,0.0,0,0.0,,,,,,
165.29657196511317,2.346221724761871,117.16470517340292,282.5371847600109,75.26606220318934,0.0,0,0.0,,,,,,
166.29657196511317,2.3596399391386296,116.17737480212622,282.37850666462714,73.78506664627429,0.0,0,0.0,,,,,,
167.29657196511317,2.3733302109206376,115.19004443084953,282.21982856924336,72.30407108935924,0.0,0,0.0,,,,,,
168.29657196511317,2.387303800468152,114.20271405957283,282.0611504738596,70.8230755324442,0.0,0,0.0,,,,,,
169.29657196511317,2.401572682008302,113.21538368829613,281.9024723784758,69.34207997552915,0.0,0,0.0,,,,,,
170.29657196511317,2.4161496052799447,112.22805331701943,281.74379428309203,67.8610844186141,0.0,0,0.0,,,,,,
171.29657196511317,2.4310481639793964,111.24072294574273,281.58511618770825,66.38008886169905,0.0,0,0.0,,,,,,
172.29657196511317,2.4462828719277114,110.25339257446603,281.4264380923245,64.899093304784,0.0,0,0.0,,,,,,
173.29657196511317,2.461869248028941,109.26606220318934,281.2677599969407,63.418097747868956,0.0,0,0.0,,,,,,
174.29657196511317,2.477823911265696,108.27873183191264,281.1090819015569,61.93710219095391,0.0,0,0.0,,,,,,
175.29657196511317,2.4941646871894627,107.29140146063594,280.95040380617314,60.45610663403886,0.0,0,0.0,,,,,,
176.29657196511317,2.510910727616153,106.30407108935924,280.79172571078936,58.97511107712381,0.0,0,0.0,,,,,,
177.29657196511317,2.5280826455418604,105.31674071808254,280.6330476154056,57.494115520208766,0.0,0,0.0,,,,,,
178.29657196511317,2.545702667661866,104.32941034680584,280.4743695200218,56.01311996329372,0.0,0,0.0,,,,,,
179.29657196511317,2.563794807322907,103.34207997552915,280.31569142463803,54.53212440637867,0.0,0,0.0,,,,,,
180.29657196511317,2.5823850612841235,102.35474960425245,280.15701332925426,53.05112884946362,0.0,0,0.0,,,,,,
181.29657196511317,2.6015016343310555,101.36741923297575,279.9983352338705,51.570133292548576,0.0,0,0.0,,,,,,
182.29657196511317,2.621175196611918,100.38008886169905,279.8396571384867,50.08913773563353,0.0,0,0.0,,,,,,
183.29657196511317,2.6414391795883034,99.39275849042235,279.6809790431029,48.60814217871848,0.0,0,0.0,,,,,,
184.29657196511317,2.6623301177685526,98.40542811914565,279.52230094771915,47.12714662180343,0.0,0,0.0,,,,,,
185.29657196511317,2.6838880449940596,97.41809774786896,279.36362285233537,45.646151064888386,0.0,0,0.0,,,,,,
186.29657196511317,2.7061569560735066,96.43076737659226,279.2049447569516,44.16515550797334,0.0,0,-0.0,,,,,,
187.29657196511317,2.7291853471371463,95.44343700531556,279.0462666615678,42.68415995105829,0.0,0,-0.0,,,,,,
188.29657196511317,2.753026851388371,94.45610663403886,278.88758856618404,41.20316439414324,0.0,0,-0.0,,,,,,
189.29657196511317,2.7777409912026845,93.46877626276216,278.72891047080026,39.722168837228196,0.0,0,-0.0,,,,,,
190.29657196511317,2.8033940730957707,92.48144589148546,278.5702323754165,38.24117328031315,0.0,0,-0.0,,,,,,
191.29657196511317,2.830060259414215,91.49411552020877,278.4115542800327,36.7601777233981,0.0,0,-0.0,,,,,,
192.29657196511317,2.8578228603459443,90.50678514893207,278.2528761846489,35.279182166483054,0.0,0,-0.0,,,,,,
193.29657196511317,2.8867759029333655,89.51945477765537,278.09419808926515,33.798186609568006,0.0,0,-0.0,,,,,,
194.29657196511317,2.9170260515480777,88.53212440637867,277.93551999388137,32.31719105265296,0.0,0,-0.0,,,,,,
195.29657196511317,2.9486949787316976,87.54479403510197,277.7768418984976,30.836195495737908,0.0,0,-0.0,,,,,,
196.29657196511317,2.9819223193766637,86.55746366382527,277.6181638031138,29.355199938822857,0.0,0,-0.0,,,,,,
197.29657196511317,3.016869389396673,85.57013329254858,277.45948570773004,27.874204381907806,0.0,0,-0.0,,,,,,
198.29657196511317,3.053723919248221,84.58280292127188,277.30080761234626,26.393208824992755,0.0,0,-0.0,,,,,,
199.29657196511317,3.0927061538426837,83.59547254999518,277.1421295169625,24.912213268077704,0.0,0,-0.0,,,,,,
200.29657196511317,3.1340768211595904,82.60814217871848,276.9834514215787,23.431217711162653,0.0,0,0.0,,,,,,
201.29657196511317,3.17814770136814,81.62081180744178,276.82477332619493,21.9502221542476,0.0,0,0.0,,,,,,
202.29657196511317,3.2252958859594236,80.63348143616508,276.66609523081115,20.46922659733255,0.0,0,0.0,,,,,,
203.29657196511317,3.2759833888989576,79.64615106488839,276.5074171354274,18.9882310404175,0.0,0,0.0,,,,,,
204.29657196511317,3.330784716036101,78.65882069361169,276.3487390400436,17.50723548350245,0.0,0,0.0,,,,,,
205.29657196511317,3.3904266104577636,77.67149032233499,276.1900609446598,16.026239926587397,0.0,0,0.0,,,,,,
206.29657196511317,3.4558470519586915,76.68415995105829,276.03138284927604,14.545244369672348,0.0,0,0.0,,,,,,
207.29657196511317,3.528285904305057,75.69682957978159,275.87270475389226,13.064248812757299,0.0,0,0.0,,,,,,
208.29657196511317,3.6080808351222946,74.7094992085049,275.7140266585085,12.0,0.0,0,0.0,,,,,,
209.01517561506193,3.6679644726180247,74.0,275.6,12.0,0.0,0,0.0,,,,,,
