Distance (in),Time (s),X (in),Y (in),Velocity (in/s),Orientation (deg),Touch,Rotational Velocity (deg/s),Way X (in),Way Y (in),Way Velocity (in/s),Way Orientation (deg),Way Turn Radius (in),Touch this Point
0.0,0.0,77.0,180.0,12.0,0.0,0,0.0,77.0,180.0,12.0,0.0,3.0,0
1.0000000000000044,0.0755000448179712,77.97823412510245,180.20750420835506,14.490050500260772,0.0,0,0.0,110.0,187.0,96.0,0.0,3.0,0
2.000000000000009,0.13905232863682385,78.95646825020489,180.41500841671012,16.980101000521543,0.0,0,0.0,210.0,187.0,96.0,0.0,20.0,0
3.0000000000000133,0.19392163303817106,79.93470237530734,180.62251262506518,19.470151500782315,0.0,0,0.0,240.0,170.0,12.0,0.0,20.0,0
4.000000000000018,0.24219541858315535,80.91293650040978,180.83001683342025,21.960202001043086,0.0,0,0.0,,,,,,
5.000000000000022,0.28528915729883353,81.89117062551223,181.0375210417753,24.450252501303858,0.0,0,0.0,,,,,,
6.000000000000027,0.32420681406338,82.86940475061468,181.24502525013037,26.94030300156463,0.0,0,-0.0,,,,,,
7.000000000000031,0.35968626603463266,83.84763887571712,181.45252945848543,29.4303535018254,0.0,0,-0.0,,,,,,
8.000000000000036,0.3922857005220144,84.82587300081957,181.6600336668405,31.920404002086173,0.0,0,-0.0,,,,,,
9.000000000000039,0.4224375792266499,85.80410712592202,181.86753787519555,34.410454502346944,0.0,0,-0.0,,,,,,
10.000000000000043,0.45048375913902433,86.78234125102446,182.0750420835506,36.900505002607716,0.0,0,-0.0,,,,,,
11.000000000000046,0.47669915038865107,87.76057537612691,182.28254629190567,39.39055550286849,0.0,0,-0.0,,,,,,
12.00000000000005,0.5013081256135519,88.73880950122935,182.49005050026074,41.88060600312926,0.0,0,-0.0,,,,,,
13.000000000000053,0.5244961919893784,89.7170436263318,182.6975547086158,44.37065650339003,0.0,0,-0.0,,,,,,
14.000000000000057,0.5464184775183637,90.69527775143425,182.90505891697086,46.8607070036508,0.0,0,-0.0,,,,,,
15.00000000000006,0.56720602098043,91.6735118765367,183.11256312532592,49.350757503911574,0.0,0,0.0,,,,,,
16.000000000000064,0.5869705140975984,92.65174600163914,183.32006733368098,51.840808004172345,0.0,0,0.0,,,,,,
17.000000000000068,0.6058079315157181,93.62998012674159,183.52757154203604,54.33085850443312,0.0,0,0.0,,,,,,
18.00000000000007,0.6238013475883485,94.60821425184403,183.7350757503911,56.82090900469389,0.0,0,0.0,,,,,,
19.000000000000075,0.6410231491977305,95.58644837694648,183.94257995874617,59.31095950495466,0.0,0,0.0,,,,,,
20.000000000000078,0.6575367936218851,96.56468250204892,184.15008416710123,61.80101000521543,0.0,0,0.0,,,,,,
21.00000000000008,0.6733982192603072,97.54291662715137,184.3575883754563,64.2910605054762,0.0,0,0.0,,,,,,
22.000000000000085,0.6886569883563003,98.52115075225382,184.56509258381135,66.78111100573696,0.0,0,0.0,,,,,,
23.00000000000009,0.7033572205764383,99.49938487735626,184.7725967921664,69.27116150599772,0.0,0,0.0,,,,,,
24.000000000000092,0.7175383617583685,100.47761900245871,184.98010100052147,71.76121200625849,0.0,0,0.0,,,,,,
25.000000000000096,0.731235821558798,101.45585312756116,185.18760520887653,74.25126250651925,0.0,0,0.0,,,,,,
26.0000000000001,0.7444815059456031,102.4340872526636,185.3951094172316,76.74131300678002,0.0,0,0.0,,,,,,
27.000000000000103,0.7573042646793919,103.41232137776605,185.60261362558666,79.23136350704078,0.0,0,0.0,,,,,,
28.000000000000107,0.7697302695665819,104.3905555028685,185.81011783394172,81.72141400730155,0.0,0,0.0,,,,,,
29.00000000000011,0.781783335950414,105.36878962797094,186.01762204229678,84.21146450756231,0.0,0,0.0,,,,,,
30.000000000000114,0.7934851973635783,106.34702375307339,186.22512625065184,86.70151500782308,0.0,0,0.0,,,,,,
31.000000000000117,0.8048557412993252,107.32525787817583,186.4326304590069,89.19156550808384,0.0,0,0.0,,,,,,
32.00000000000012,0.8159132125243689,108.30349200327828,186.64013466736196,91.6816160083446,0.0,0,0.0,,,,,,
33.00000000000013,0.8266743891520543,109.28172612838073,186.84763887571702,94.17166650860538,0.0,0,0.0,,,,,,
33.73425558686598,0.8344324568811424,110.0,187.0,95.1165976587266,0.0,0,0.0,,,,,,
34.73425558686598,0.8448972727291693,111.0,187.0,96.0,0.0,0,0.0,,,,,,
35.73425558686598,0.8553139393958359,112.0,187.0,96.0,0.0,0,0.0,,,,,,
36.73425558686598,0.8657306060625025,113.0,187.0,96.0,0.0,0,0.0,,,,,,
37.73425558686598,0.8761472727291691,114.0,187.0,96.0,0.0,0,0.0,,,,,,
38.73425558686598,0.8865639393958358,115.0,187.0,96.0,0.0,0,0.0,,,,,,
39.73425558686598,0.8969806060625024,116.0,187.0,96.0,0.0,0,0.0,,,,,,
40.73425558686598,0.907397272729169,117.0,187.0,96.0,0.0,0,0.0,,,,,,
41.73425558686598,0.9178139393958357,118.0,187.0,96.0,0.0,0,0.0,,,,,,
42.73425558686598,0.9282306060625023,119.0,187.0,96.0,0.0,0,0.0,,,,,,
43.73425558686598,0.9386472727291689,120.0,187.0,96.0,0.0,0,0.0,,,,,,
44.73425558686598,0.9490639393958356,121.0,187.0,96.0,0.0,0,0.0,,,,,,
45.73425558686598,0.9594806060625022,122.0,187.0,96.0,0.0,0,0.0,,,,,,
46.73425558686598,0.9698972727291688,123.0,187.0,96.0,0.0,0,0.0,,,,,,
47.73425558686598,0.9803139393958354,124.0,187.0,96.0,0.0,0,0.0,,,,,,
48.73425558686598,0.9907306060625021,125.0,187.0,96.0,0.0,0,0.0,,,,,,
49.73425558686598,1.0011472727291688,126.0,187.0,96.0,0.0,0,0.0,,,,,,
50.73425558686598,1.0115639393958356,127.0,187.0,96.0,0.0,0,0.0,,,,,,
51.73425558686598,1.0219806060625023,128.0,187.0,96.0,0.0,0,0.0,,,,,,
52.73425558686598,1.032397272729169,129.0,187.0,96.0,0.0,0,0.0,,,,,,
53.73425558686598,1.0428139393958358,130.0,187.0,96.0,0.0,0,0.0,,,,,,
54.73425558686598,1.0532306060625025,131.0,187.0,96.0,0.0,0,0.0,,,,,,
55.73425558686598,1.0636472727291693,132.0,187.0,96.0,0.0,0,0.0,,,,,,
56.73425558686598,1.074063939395836,133.0,187.0,96.0,0.0,0,0.0,,,,,,
57.73425558686598,1.0844806060625027,134.0,187.0,96.0,0.0,0,0.0,,,,,,
58.73425558686598,1.0948972727291695,135.0,187.0,96.0,0.0,0,0.0,,,,,,
59.73425558686598,1.1053139393958362,136.0,187.0,96.0,0.0,0,0.0,,,,,,
60.73425558686598,1.115730606062503,137.0,187.0,96.0,0.0,0,0.0,,,,,,
61.73425558686598,1.1261472727291697,138.0,187.0,96.0,0.0,0,0.0,,,,,,
62.73425558686598,1.1365639393958364,139.0,187.0,96.0,0.0,0,0.0,,,,,,
63.73425558686598,1.1469806060625032,140.0,187.0,96.0,0.0,0,0.0,,,,,,
64.73425558686597,1.1573972727291697,141.0,187.0,96.0,0.0,0,0.0,,,,,,
65.73425558686597,1.1678139393958364,142.0,187.0,96.0,0.0,0,0.0,,,,,,
66.73425558686597,1.1782306060625032,143.0,187.0,96.0,0.0,0,0.0,,,,,,
67.73425558686597,1.18864727272917,144.0,187.0,96.0,0.0,0,0.0,,,,,,
68.73425558686597,1.1990639393958367,145.0,187.0,96.0,0.0,0,-0.0,,,,,,
69.73425558686597,1.2094806060625034,146.0,187.0,96.0,0.0,0,-0.0,,,,,,
70.73425558686597,1.2198972727291701,147.0,187.0,96.0,0.0,0,-0.0,,,,,,
71.73425558686597,1.2303139393958369,148.0,187.0,96.0,0.0,0,-0.0,,,,,,
72.73425558686597,1.2407306060625036,149.0,187.0,96.0,0.0,0,-0.0,,,,,,
73.73425558686597,1.2511472727291704,150.0,187.0,96.0,0.0,0,-0.0,,,,,,
74.73425558686597,1.261563939395837,151.0,187.0,96.0,0.0,0,-0.0,,,,,,
75.73425558686597,1.2719806060625038,152.0,187.0,96.0,0.0,0,-0.0,,,,,,
76.73425558686597,1.2823972727291706,153.0,187.0,96.0,0.0,0,-0.0,,,,,,
77.73425558686597,1.2928139393958373,154.0,187.0,96.0,0.0,0,-0.0,,,,,,
78.73425558686597,1.303230606062504,155.0,187.0,96.0,0.0,0,-0.0,,,,,,
79.73425558686597,1.3136472727291708,156.0,187.0,96.0,0.0,0,-0.0,,,,,,
80.73425558686597,1.3240639393958376,157.0,187.0,96.0,0.0,0,-0.0,,,,,,
81.73425558686597,1.3344806060625043,158.0,187.0,96.0,0.0,0,-0.0,,,,,,
82.73425558686597,1.344897272729171,159.0,187.0,96.0,0.0,0,-0.0,,,,,,
83.73425558686597,1.3553139393958378,160.0,187.0,96.0,0.0,0,-0.0,,,,,,
84.73425558686597,1.3657306060625045,161.0,187.0,96.0,0.0,0,-0.0,,,,,,
85.73425558686597,1.3761472727291713,162.0,187.0,96.0,0.0,0,-0.0,,,,,,
86.73425558686597,1.386563939395838,163.0,187.0,96.0,0.0,0,-0.0,,,,,,
87.73425558686597,1.3969806060625047,164.0,187.0,96.0,0.0,0,-0.0,,,,,,
88.73425558686597,1.4073972727291715,165.0,187.0,96.0,0.0,0,-0.0,,,,,,
89.73425558686597,1.4178139393958382,166.0,187.0,96.0,0.0,0,-0.0,,,,,,
90.73425558686597,1.428230606062505,167.0,187.0,96.0,0.0,0,-0.0,,,,,,
91.73425558686597,1.4386472727291717,168.0,187.0,96.0,0.0,0,-0.0,,,,,,
92.73425558686597,1.4490639393958384,169.0,187.0,96.0,0.0,0,-0.0,,,,,,
93.73425558686597,1.4594806060625052,170.0,187.0,96.0,0.0,0,-0.0,,,,,,
94.73425558686597,1.469897272729172,171.0,187.0,96.0,0.0,0,-0.0,,,,,,
95.73425558686597,1.4803139393958387,172.0,187.0,96.0,0.0,0,-0.0,,,,,,
96.73425558686597,1.4907306060625054,173.0,187.0,96.0,0.0,0,-0.0,,,,,,
97.73425558686597,1.5011472727291721,174.0,187.0,96.0,0.0,0,-0.0,,,,,,
98.73425558686597,1.5115639393958389,175.0,187.0,96.0,0.0,0,0.0,,,,,,
99.73425558686597,1.5219806060625056,176.0,187.0,96.0,0.0,0,0.0,,,,,,
100.73425558686597,1.5323972727291724,177.0,187.0,96.0,0.0,0,0.0,,,,,,
101.73425558686597,1.542813939395839,178.0,187.0,96.0,0.0,0,0.0,,,,,,
102.73425558686597,1.5532306060625058,179.0,187.0,96.0,0.0,0,0.0,,,,,,
103.73425558686597,1.5636472727291726,180.0,187.0,96.0,0.0,0,0.0,,,,,,
104.73425558686597,1.5740639393958393,181.0,187.0,96.0,0.0,0,0.0,,,,,,
105.73425558686597,1.584480606062506,182.0,187.0,96.0,0.0,0,0.0,,,,,,
106.73425558686597,1.5948972727291728,183.0,187.0,96.0,0.0,0,0.0,,,,,,
107.73425558686597,1.6053139393958396,184.0,187.0,96.0,0.0,0,0.0,,,,,,
108.73425558686597,1.6157306060625063,185.0,187.0,96.0,0.0,0,0.0,,,,,,
109.73425558686597,1.626147272729173,186.0,187.0,96.0,0.0,0,0.0,,,,,,
110.73425558686597,1.6365639393958398,187.0,187.0,96.0,0.0,0,0.0,,,,,,
111.73425558686597,1.6469806060625065,188.0,187.0,96.0,0.0,0,0.0,,,,,,
112.73425558686597,1.6573972727291733,189.0,187.0,96.0,0.0,0,0.0,,,,,,
113.73425558686597,1.66781393939584,190.0,187.0,96.0,0.0,0,0.0,,,,,,
114.73425558686597,1.6782306060625067,191.0,187.0,96.0,0.0,0,0.0,,,,,,
115.73425558686597,1.6886472727291735,192.0,187.0,96.0,0.0,0,0.0,,,,,,
116.73425558686597,1.6990639393958402,193.0,187.0,96.0,0.0,0,0.0,,,,,,
117.73425558686597,1.709480606062507,194.0,187.0,96.0,0.0,0,0.0,,,,,,
118.73425558686597,1.7198972727291737,195.0,187.0,96.0,0.0,0,0.0,,,,,,
119.73425558686597,1.7303139393958404,196.0,187.0,96.0,0.0,0,0.0,,,,,,
120.73425558686597,1.7407306060625072,197.0,187.0,96.0,0.0,0,0.0,,,,,,
121.73425558686597,1.751147272729174,198.0,187.0,96.0,0.0,0,0.0,,,,,,
122.73425558686597,1.7615639393958407,199.0,187.0,96.0,0.0,0,0.0,,,,,,
123.73425558686597,1.7719806060625074,200.0,187.0,96.0,0.0,0,0.0,,,,,,
124.73425558686597,1.7823972727291741,201.0,187.0,96.0,0.0,0,0.0,,,,,,
125.73425558686597,1.7928139393958409,202.0,187.0,96.0,0.0,0,0.0,,,,,,
126.73425558686597,1.8032306060625076,203.0,187.0,96.0,0.0,0,0.0,,,,,,
127.73425558686597,1.8136472727291744,204.0,187.0,96.0,0.0,0,0.0,,,,,,
128.7342319437324,1.8240636931131997,204.99997462660514,186.99813977481185,96.0,0.0,0,0.0,,,,,,
129.73412778032088,1.8344792747443297,205.99912414328548,186.9595142994827,96.0,0.0,0,0.0,,,,,,
130.73402361690935,1.8448948563754597,206.99509451407386,186.87100043311895,96.0,0.0,0,0.0,,,,,,
131.73391945349786,1.85531043800659,207.98539633173465,186.73281941428937,96.0,0.0,0,0.0,,,,,,
132.73381529008634,1.86572601963772,208.96755435746286,186.54531662357775,96.0,0.0,0,0.0,,,,,,
133.73371112667485,1.8762763628040058,209.93911370769223,186.30896072031132,93.54754756863584,0.0,0,0.0,,,,,,
134.73360696326333,1.8871069685832036,210.8976459900255,186.02434247115647,91.09509513727173,0.0,0,0.0,,,,,,
135.73350279985183,1.8982331332783542,211.8407553729508,185.69217327350975,88.64264270590756,0.0,0,0.0,,,,,,
136.7333986364403,1.9096714405978985,212.76608457417268,185.31328337737492,86.19019027454345,0.0,0,0.0,,,,,,
137.73329447302882,1.9214399102975444,213.67132075259025,184.88861981017027,83.73773784317929,0.0,0,0.0,,,,,,
138.73329447302882,1.9335594500858744,214.54134293843887,184.3956072381894,81.28502992939143,0.0,0,0.0,,,,,,
139.73329447302882,1.9460502886845983,215.4113651242875,183.90259466620853,78.83232201560357,0.0,0,0.0,,,,,,
140.73329447302882,1.9589358956168317,216.28138731013613,183.40958209422766,76.3796141018157,0.0,0,0.0,,,,,,
141.73329447302882,1.9722420382654893,217.15140949598475,182.9165695222468,73.92690618802784,0.0,0,0.0,,,,,,
142.73329447302882,1.9859970919660546,218.02143168183338,182.42355695026592,71.47419827423998,0.0,0,0.0,,,,,,
143.73329447302882,2.000232404233894,218.891453867682,181.93054437828505,69.02149036045212,0.0,0,0.0,,,,,,
144.73329447302882,2.014982724877065,219.76147605353063,181.43753180630418,66.56878244666426,0.0,0,0.0,,,,,,
145.73329447302882,2.0302867168331726,220.63149823937925,180.9445192343233,64.1160745328764,0.0,0,0.0,,,,,,
146.73329447302882,2.0461875666197735,221.50152042522788,180.45150666234244,61.66336661908853,0.0,0,0.0,,,,,,
147.73329447302882,2.062733718653948,222.3715426110765,179.95849409036157,59.21065870530066,0.0,0,0.0,,,,,,
148.73329447302882,2.0799797648786806,223.24156479692513,179.4654815183807,56.75795079151279,0.0,0,0.0,,,,,,
149.73329447302882,2.097987530853395,224.11158698277376,178.97246894639983,54.30524287772492,0.0,0,0.0,,,,,,
150.73329447302882,2.116827412778797,224.98160916862238,178.47945637441896,51.85253496393705,0.0,0,0.0,,,,,,
151.73329447302882,2.136580038398748,225.851631354471,177.9864438024381,49.399827050149185,0.0,0,0.0,,,,,,
152.73329447302882,2.1573383507185633,226.72165354031964,177.49343123045722,46.947119136361316,0.0,0,0.0,,,,,,
153.73329447302882,2.179210250632633,227.59167572616826,177.00041865847635,44.49441122257345,0.0,0,-0.0,,,,,,
154.73329447302882,2.2023219885565175,228.4616979120169,176.50740608649548,42.04170330878558,0.0,0,-0.0,,,,,,
155.73329447302882,2.2268225751220876,229.3317200978655,176.0143935145146,39.58899539499771,0.0,0,-0.0,,,,,,
156.73329447302882,2.252889601857289,230.20174228371414,175.52138094253374,37.13628748120984,0.0,0,-0.0,,,,,,
157.73329447302882,2.280737049676229,231.07176446956277,175.02836837055287,34.68357956742197,0.0,0,-0.0,,,,,,
158.73329447302882,2.310625959523115,231.9417866554114,174.535355798572,32.230871653634104,0.0,0,-0.0,,,,,,
159.73329447302882,2.342879323687046,232.81180884126002,174.04234322659113,29.77816373984624,0.0,0,-0.0,,,,,,
160.73329447302882,2.377903373216722,233.68183102710864,173.54933065461026,27.325455826058374,0.0,0,-0.0,,,,,,
161.73329447302882,2.4162188679419057,234.55185321295727,173.0563180826294,24.87274791227051,0.0,0,-0.0,,,,,,
162.73329447302882,2.4585086141876595,235.4218753988059,172.56330551064852,22.420039998482643,0.0,0,0.0,,,,,,
163.73329447302882,2.505692478194972,236.29189758465452,172.07029293866765,19.967332084694778,0.0,0,0.0,,,,,,
164.73329447302882,2.559051486096303,237.16191977050315,171.57728036668678,17.514624170906913,0.0,0,0.0,,,,,,
165.73329447302882,2.6204453595316592,238.03194195635177,171.0842677947059,15.061916257119048,0.0,0,0.0,,,,,,
166.73329447302882,2.6927228700730073,238.9019641422004,170.59125522272504,12.609208343331183,0.0,0,0.0,,,,,,
167.73329447302882,2.7739932617124836,239.77198632804902,170.09824265074417,12.0,0.0,0,0.0,,,,,,
167.98157224694708,2.794683076205672,240.0,170.0,12.0,0.0,0,0.0,,,,,,
