Distance (in),Time (s),X (in),Y (in),Velocity (in/s),Orientation (deg),Touch,Rotational Velocity (deg/s),Way X (in),Way Y (in),Way Velocity (in/s),Way Orientation (deg),Way Turn Radius (in),Touch this Point
0.0,0.0,74.0,275.6,12.0,0.0,0,0.0,74.0,275.6,12.0,0.0,3.0,0
1.0000000000000064,0.07539637661245129,74.87157553712456,276.0902612396326,14.52647368295049,0.0,0,0.0,90.0,284.6,60.0,0.0,20.0,0
2.000000000000013,0.1387287599676158,75.74315107424911,276.58052247926514,17.05294736590098,0.0,0,0.0,200.0,284.6,96.0,0.0,20.0,0
3.0000000000000195,0.19332528447719627,76.61472661137367,277.0707837188977,19.579421048851472,0.0,0,0.0,246.0,255.60000000000002,72.0,0.0,10.0,0
4.000000000000026,0.24130381030926473,77.48630214849823,277.56104495853026,22.10589473180196,0.0,0,-0.0,291.0,216.60000000000002,12.0,0.0,3.0,0
5.000000000000032,0.28409530201978744,78.35787768562278,278.0513061981628,24.63236841475245,0.0,0,-0.0,,,,,,
6.000000000000038,0.32271189314037974,79.22945322274734,278.5415674377954,27.158842097702937,0.0,0,-0.0,,,,,,
7.000000000000044,0.3578958078054525,80.1010287598719,279.03182867742794,29.685315780653426,0.0,0,-0.0,,,,,,
8.000000000000052,0.3902074965687258,80.97260429699645,279.5220899170605,32.211789463603914,0.0,0,-0.0,,,,,,
9.000000000000059,0.42008051267590885,81.84417983412101,280.01235115669306,34.7382631465544,0.0,0,0.0,,,,,,
10.000000000000066,0.4478571331037383,82.71575537124556,280.5026123963256,37.26473682950489,0.0,0,0.0,,,,,,
11.000000000000073,0.4738123003424769,83.58733090837012,280.9928736359582,39.79121051245538,0.0,0,0.0,,,,,,
12.00000000000008,0.49817019734152795,84.45890644549468,281.48313487559074,42.31768419540587,0.0,0,0.0,,,,,,
13.000000000000087,0.5211160180403089,85.33048198261923,281.9733961152233,44.844157878356356,0.0,0,0.0,,,,,,
13.999333400747098,0.5427904513555903,86.21082162430199,282.44633306781895,47.36894741583708,0.0,0,0.0,,,,,,
14.9992292373356,0.5633508797480744,87.11404942471643,282.87525173678256,49.895157932669676,0.0,0,0.0,,,,,,
15.9991250739241,0.5828960279649655,88.03758542433582,283.2584917939713,52.42136844950227,0.0,0,0.0,,,,,,
16.999020910512574,0.6015214473372148,88.97912126412933,283.59509533882976,54.947578966334795,0.0,0,0.0,,,,,,
17.99891674710108,0.6193098064432978,89.93630359483991,283.8842210377956,57.47378948316741,0.0,0,0.0,,,,,,
18.998812583689578,0.6364863965935013,90.90673995913167,284.12514622719516,58.95162765082126,0.0,0,0.0,,,,,,
19.998708420278067,0.6532377230813199,91.88800477148737,284.3172687195263,60.4294658184751,0.0,0,0.0,,,,,,
20.99860425686656,0.6695843347858061,92.87764538090897,284.46010830861366,61.907303986128944,0.0,0,0.0,,,,,,
21.99850009345505,0.6855453263282959,93.87318820126778,284.5533079698739,63.38514215378279,0.0,0,0.0,,,,,,
22.99850009345505,0.7011400778189645,94.87318820126778,284.5533079698739,64.86313427413808,0.0,0,0.0,,,,,,
23.99850009345505,0.7163834852343013,95.87318820126778,284.5533079698739,66.34112639449336,0.0,0,0.0,,,,,,
24.99850009345505,0.7312910310676551,96.87318820126778,284.5533079698739,67.81911851484864,0.0,0,0.0,,,,,,
25.99850009345505,0.7458771964865664,97.87318820126778,284.5533079698739,69.29711063520392,0.0,0,0.0,,,,,,
26.99850009345505,0.7601555458578335,98.87318820126778,284.5533079698739,70.7751027555592,0.0,0,0.0,,,,,,
27.99850009345505,0.7741388025381225,99.87318820126778,284.5533079698739,72.25309487591448,0.0,0,0.0,,,,,,
28.99850009345505,0.7878389169912835,100.87318820126778,284.5533079698739,73.73108699626977,0.0,0,0.0,,,,,,
29.99850009345505,0.8012671281461174,101.87318820126778,284.5533079698739,75.20907911662505,0.0,0,0.0,,,,,,
30.99850009345505,0.8144340187838599,102.87318820126778,284.5533079698739,76.68707123698033,0.0,0,0.0,,,,,,
31.99850009345505,0.827349565639185,103.87318820126778,284.5533079698739,78.16506335733561,0.0,0,0.0,,,,,,
32.99850009345505,0.8400231848088731,104.87318820126778,284.5533079698739,79.6430554776909,0.0,0,0.0,,,,,,
33.99850009345505,0.8524637729858107,105.87318820126778,284.5533079698739,81.12104759804618,0.0,0,0.0,,,,,,
34.99850009345505,0.8646797449705695,106.87318820126778,284.5533079698739,82.59903971840146,0.0,0,0.0,,,,,,
35.99850009345505,0.8766790678566633,107.87318820126778,284.5533079698739,84.07703183875674,0.0,0,0.0,,,,,,
36.99850009345505,0.8884692922372672,108.87318820126778,284.5533079698739,85.55502395911202,0.0,0,0.0,,,,,,
37.99850009345505,0.9000575807394886,109.87318820126778,284.5533079698739,87.0330160794673,0.0,0,0.0,,,,,,
38.99850009345505,0.9114507341561952,110.87318820126778,284.5533079698739,88.51100819982258,0.0,0,0.0,,,,,,
39.99850009345505,0.9226552154141101,111.87318820126778,284.5533079698739,89.98900032017787,0.0,0,0.0,,,,,,
40.99850009345505,0.933677171589663,112.87318820126778,284.5533079698739,91.46699244053315,0.0,0,0.0,,,,,,
41.99850009345505,0.944522454160353,113.87318820126778,284.5533079698739,92.94498456088843,0.0,0,0.0,,,,,,
42.99850009345505,0.9551966376586483,114.87318820126778,284.5533079698739,94.42297668124371,0.0,0,0.0,,,,,,
43.99850009345505,0.9657050368772863,115.87318820126778,284.5533079698739,95.90096880159899,0.0,0,0.0,,,,,,
44.99850009345505,0.9761270791029706,116.87318820126778,284.5533079698739,96.0,0.0,0,0.0,,,,,,
45.99850009345505,0.9865437457696372,117.87318820126778,284.5533079698739,96.0,0.0,0,0.0,,,,,,
46.99850009345505,0.9969604124363038,118.87318820126778,284.5533079698739,96.0,0.0,0,0.0,,,,,,
47.99850009345505,1.0073770791029706,119.87318820126778,284.5533079698739,96.0,0.0,0,0.0,,,,,,
48.99850009345505,1.0177937457696373,120.87318820126778,284.5533079698739,96.0,0.0,0,0.0,,,,,,
49.99850009345505,1.028210412436304,121.87318820126778,284.5533079698739,96.0,0.0,0,0.0,,,,,,
50.99850009345505,1.0386270791029708,122.87318820126778,284.5533079698739,96.0,0.0,0,0.0,,,,,,
51.99850009345505,1.0490437457696375,123.87318820126778,284.5533079698739,96.0,0.0,0,-0.0,,,,,,
52.99850009345505,1.0594604124363043,124.87318820126778,284.5533079698739,96.0,0.0,0,-0.0,,,,,,
53.99850009345505,1.069877079102971,125.87318820126778,284.5533079698739,96.0,0.0,0,-0.0,,,,,,
54.99850009345505,1.0802937457696378,126.87318820126778,284.5533079698739,96.0,0.0,0,-0.0,,,,,,
55.99850009345505,1.0907104124363045,127.87318820126778,284.5533079698739,96.0,0.0,0,-0.0,,,,,,
56.998500093455064,1.1011270791029713,128.8731882012678,284.5533079698739,96.0,0.0,0,-0.0,,,,,,
57.998500093455064,1.111543745769638,129.8731882012678,284.5533079698739,96.0,0.0,0,-0.0,,,,,,
58.998500093455064,1.1219604124363047,130.8731882012678,284.5533079698739,96.0,0.0,0,-0.0,,,,,,
59.998500093455064,1.1323770791029715,131.8731882012678,284.5533079698739,96.0,0.0,0,-0.0,,,,,,
60.998500093455064,1.1427937457696382,132.8731882012678,284.5533079698739,96.0,0.0,0,-0.0,,,,,,
61.998500093455064,1.153210412436305,133.8731882012678,284.5533079698739,96.0,0.0,0,-0.0,,,,,,
62.998500093455064,1.1636270791029717,134.8731882012678,284.5533079698739,96.0,0.0,0,-0.0,,,,,,
63.998500093455064,1.1740437457696384,135.8731882012678,284.5533079698739,96.0,0.0,0,-0.0,,,,,,
64.99850009345506,1.1844604124363052,136.8731882012678,284.5533079698739,96.0,0.0,0,-0.0,,,,,,
65.99850009345506,1.194877079102972,137.8731882012678,284.5533079698739,96.0,0.0,0,-0.0,,,,,,
66.99850009345506,1.2052937457696387,138.8731882012678,284.5533079698739,96.0,0.0,0,-0.0,,,,,,
67.99850009345506,1.2157104124363054,139.8731882012678,284.5533079698739,96.0,0.0,0,-0.0,,,,,,
68.99850009345506,1.2261270791029721,140.8731882012678,284.5533079698739,96.0,0.0,0,-0.0,,,,,,
69.99850009345506,1.2365437457696389,141.8731882012678,284.5533079698739,96.0,0.0,0,-0.0,,,,,,
70.99850009345506,1.2469604124363056,142.8731882012678,284.5533079698739,96.0,0.0,0,-0.0,,,,,,
71.99850009345506,1.2573770791029724,143.8731882012678,284.5533079698739,96.0,0.0,0,-0.0,,,,,,
72.99850009345506,1.267793745769639,144.8731882012678,284.5533079698739,96.0,0.0,0,-0.0,,,,,,
73.99850009345506,1.2782104124363058,145.8731882012678,284.5533079698739,96.0,0.0,0,-0.0,,,,,,
74.99850009345506,1.2886270791029726,146.8731882012678,284.5533079698739,96.0,0.0,0,-0.0,,,,,,
75.99850009345506,1.2990437457696393,147.8731882012678,284.5533079698739,96.0,0.0,0,-0.0,,,,,,
76.99850009345506,1.309460412436306,148.8731882012678,284.5533079698739,96.0,0.0,0,-0.0,,,,,,
77.99850009345506,1.3198770791029728,149.8731882012678,284.5533079698739,96.0,0.0,0,-0.0,,,,,,
78.99850009345506,1.3302937457696395,150.8731882012678,284.5533079698739,96.0,0.0,0,-0.0,,,,,,
79.99850009345506,1.3407104124363063,151.8731882012678,284.5533079698739,96.0,0.0,0,-0.0,,,,,,
80.99850009345506,1.351127079102973,152.8731882012678,284.5533079698739,96.0,0.0,0,-0.0,,,,,,
81.99850009345506,1.3615437457696398,153.8731882012678,284.5533079698739,96.0,0.0,0,-0.0,,,,,,
82.99850009345506,1.3719604124363065,154.8731882012678,284.5533079698739,96.0,0.0,0,-0.0,,,,,,
83.99850009345506,1.3823770791029732,155.8731882012678,284.5533079698739,96.0,0.0,0,-0.0,,,,,,
84.99850009345506,1.39279374576964,156.8731882012678,284.5533079698739,96.0,0.0,0,-0.0,,,,,,
85.99850009345506,1.4032104124363067,157.8731882012678,284.5533079698739,96.0,0.0,0,-0.0,,,,,,
86.99850009345506,1.4136270791029735,158.8731882012678,284.5533079698739,96.0,0.0,0,0.0,,,,,,
87.99850009345506,1.4240437457696402,159.8731882012678,284.5533079698739,96.0,0.0,0,0.0,,,,,,
88.99850009345506,1.434460412436307,160.8731882012678,284.5533079698739,96.0,0.0,0,0.0,,,,,,
89.99850009345506,1.4448770791029737,161.8731882012678,284.5533079698739,96.0,0.0,0,0.0,,,,,,
90.99850009345506,1.4552937457696404,162.8731882012678,284.5533079698739,96.0,0.0,0,0.0,,,,,,
91.99850009345506,1.4657104124363072,163.8731882012678,284.5533079698739,96.0,0.0,0,0.0,,,,,,
92.99850009345506,1.476127079102974,164.8731882012678,284.5533079698739,96.0,0.0,0,0.0,,,,,,
93.99850009345506,1.4865437457696407,165.8731882012678,284.5533079698739,96.0,0.0,0,0.0,,,,,,
94.99850009345506,1.4969604124363074,166.8731882012678,284.5533079698739,96.0,0.0,0,0.0,,,,,,
95.99850009345506,1.5073770791029741,167.8731882012678,284.5533079698739,96.0,0.0,0,0.0,,,,,,
96.99850009345506,1.5177937457696409,168.8731882012678,284.5533079698739,96.0,0.0,0,0.0,,,,,,
97.99850009345506,1.5282104124363076,169.8731882012678,284.5533079698739,96.0,0.0,0,0.0,,,,,,
98.99850009345506,1.5386270791029744,170.8731882012678,284.5533079698739,96.0,0.0,0,0.0,,,,,,
99.99850009345506,1.549043745769641,171.8731882012678,284.5533079698739,96.0,0.0,0,0.0,,,,,,
100.99850009345506,1.5594604124363078,172.8731882012678,284.5533079698739,96.0,0.0,0,0.0,,,,,,
101.99850009345506,1.5698770791029746,173.8731882012678,284.5533079698739,96.0,0.0,0,0.0,,,,,,
102.99850009345506,1.5802937457696413,174.8731882012678,284.5533079698739,96.0,0.0,0,0.0,,,,,,
103.99850009345506,1.590710412436308,175.8731882012678,284.5533079698739,96.0,0.0,0,0.0,,,,,,
104.99850009345506,1.6011270791029748,176.8731882012678,284.5533079698739,96.0,0.0,0,0.0,,,,,,
105.99850009345506,1.6115437457696415,177.8731882012678,284.5533079698739,96.0,0.0,0,0.0,,,,,,
106.99850009345506,1.6219604124363083,178.8731882012678,284.5533079698739,96.0,0.0,0,0.0,,,,,,
107.99850009345506,1.632377079102975,179.8731882012678,284.5533079698739,96.0,0.0,0,0.0,,,,,,
108.99850009345506,1.6427937457696418,180.8731882012678,284.5533079698739,96.0,0.0,0,0.0,,,,,,
109.99850009345506,1.6532104124363085,181.8731882012678,284.5533079698739,96.0,0.0,0,0.0,,,,,,
110.99850009345506,1.6636270791029752,182.8731882012678,284.5533079698739,96.0,0.0,0,0.0,,,,,,
111.99850009345506,1.674043745769642,183.8731882012678,284.5533079698739,96.0,0.0,0,0.0,,,,,,
112.99850009345506,1.6844604124363087,184.8731882012678,284.5533079698739,96.0,0.0,0,0.0,,,,,,
113.99850009345506,1.6948770791029755,185.8731882012678,284.5533079698739,96.0,0.0,0,0.0,,,,,,
114.99850009345506,1.7052937457696422,186.8731882012678,284.5533079698739,96.0,0.0,0,0.0,,,,,,
115.99850009345506,1.715710412436309,187.8731882012678,284.5533079698739,96.0,0.0,0,0.0,,,,,,
116.99850009345506,1.7261270791029757,188.8731882012678,284.5533079698739,96.0,0.0,0,0.0,,,,,,
117.99850009345506,1.7365437457696424,189.8731882012678,284.5533079698739,96.0,0.0,0,0.0,,,,,,
118.99850009345506,1.7469604124363092,190.8731882012678,284.5533079698739,96.0,0.0,0,0.0,,,,,,
119.99850009345506,1.757377079102976,191.8731882012678,284.5533079698739,96.0,0.0,0,0.0,,,,,,
120.99850009345506,1.7677937457696427,192.8731882012678,284.5533079698739,96.0,0.0,0,0.0,,,,,,
121.99850009345506,1.7782104124363094,193.8731882012678,284.5533079698739,96.0,0.0,0,0.0,,,,,,
123.00032535272489,1.78864609222037,194.87436480952636,284.589353069221,96.0,0.0,0,0.0,,,,,,
124.0002211893134,1.7990616738515002,195.87260060779087,284.5317598830769,96.0,0.0,0,0.0,,,,,,
125.00011702590189,1.8094772554826304,196.866710411644,284.42434767748506,96.0,0.0,0,0.0,,,,,,
126.00001286249037,1.8198928371137604,197.85420946429846,284.2673849270202,96.0,0.0,0,0.0,,,,,,
126.99990869907887,1.8303084187448906,198.83262953240225,284.06126395681383,96.0,0.0,0,0.0,,,,,,
127.99980453566735,1.8407480721150873,199.79952507533636,283.8064999619458,95.5572866514881,0.0,0,0.0,,,,,,
128.99970037225586,1.851236204310654,200.752479357793,283.50372971972473,95.11457330297618,0.0,0,0.0,,,,,,
129.99959620884437,1.8617732676763181,201.68911049035492,283.1537099980764,94.67185995446427,0.0,0,0.0,,,,,,
130.99949204543285,1.8723597209175684,202.60707738297884,282.75731566401834,94.22914660595237,0.0,0,0.0,,,,,,
131.99938788202135,1.8829960292204762,203.50408559650114,282.3155374969474,93.78643325744045,0.0,0,0.0,,,,,,
132.99938788202135,1.8936837802807442,204.3500111990968,281.7822365735719,93.34367378959189,0.0,0,0.0,,,,,,
133.99938788202135,1.9044223473461368,205.19593680169245,281.24893565019636,92.90091432174333,0.0,0,0.0,,,,,,
134.99938788202135,1.9152122159449314,206.0418624042881,280.71563472682084,92.45815485389477,0.0,0,0.0,,,,,,
135.99938788202135,1.9260538785973746,206.88778800688377,280.1823338034453,92.01539538604621,0.0,0,0.0,,,,,,
136.99938788202135,1.9369478349505838,207.73371360947942,279.6490328800698,91.57263591819765,0.0,0,0.0,,,,,,
137.99938788202135,1.9478945919167145,208.57963921207508,279.1157319566943,91.12987645034909,0.0,0,0.0,,,,,,
138.99938788202135,1.958894663814497,209.42556481467074,278.58243103331876,90.68711698250053,0.0,0,0.0,,,,,,
139.99938788202135,1.9699485725142323,210.2714904172664,278.04913010994323,90.24435751465197,0.0,0,0.0,,,,,,
140.99938788202135,1.981056847586356,211.11741601986205,277.5158291865677,89.8015980468034,0.0,0,0.0,,,,,,
141.99938788202135,1.9922200264536731,211.9633416224577,276.9825282631922,89.35883857895485,0.0,0,0.0,,,,,,
142.99938788202135,2.0034386545473746,212.80926722505336,276.4492273398167,88.91607911110628,0.0,0,0.0,,,,,,
143.99938788202135,2.014713285466945,213.65519282764902,275.91592641644115,88.47331964325772,0.0,0,0.0,,,,,,
144.99938788202135,2.026044481144087,214.50111843024467,275.38262549306563,88.03056017540916,0.0,0,0.0,,,,,,
145.99938788202135,2.037432812010771,215.34704403284033,274.8493245696901,87.5878007075606,0.0,0,0.0,,,,,,
146.99938788202135,2.0488788571715513,216.192969635436,274.3160236463146,87.14504123971204,0.0,0,0.0,,,,,,
147.99938788202135,2.0603832045802646,217.03889523803164,273.78272272293907,86.70228177186348,0.0,0,-0.0,,,,,,
148.99938788202135,2.0719464512212546,217.8848208406273,273.24942179956355,86.25952230401492,0.0,0,-0.0,,,,,,
149.99938788202135,2.083569203295259,218.73074644322296,272.71612087618803,85.81676283616636,0.0,0,-0.0,,,,,,
150.99938788202135,2.0952520764101035,219.5766720458186,272.1828199528125,85.3740033683178,0.0,0,-0.0,,,,,,
151.99938788202135,2.106995695776355,220.42259764841427,271.649519029437,84.93124390046924,0.0,0,-0.0,,,,,,
152.99938788202135,2.118800696408087,221.26852325100992,271.11621810606147,84.48848443262068,0.0,0,-0.0,,,,,,
153.99938788202135,2.130667723328919,222.11444885360558,270.58291718268595,84.04572496477212,0.0,0,-0.0,,,,,,
154.99938788202135,2.1425974317834977,222.96037445620124,270.0496162593104,83.60296549692356,0.0,0,-0.0,,,,,,
155.99938788202135,2.1545904874545947,223.8063000587969,269.5163153359349,83.160206029075,0.0,0,-0.0,,,,,,
156.99938788202135,2.1666475666859952,224.65222566139255,268.9830144125594,82.71744656122644,0.0,0,-0.0,,,,,,
157.99938788202135,2.178769356711372,225.4981512639882,268.44971348918386,82.27468709337788,0.0,0,-0.0,,,,,,
158.99938788202135,2.1909565558893314,226.34407686658386,267.91641256580834,81.83192762552932,0.0,0,-0.0,,,,,,
159.99938788202135,2.203209873944838,227.19000246917952,267.3831116424328,81.38916815768076,0.0,0,-0.0,,,,,,
160.99938788202135,2.215530032217221,228.03592807177517,266.8498107190573,80.9464086898322,0.0,0,-0.0,,,,,,
161.99938788202135,2.2279177639149848,228.88185367437083,266.3165097956818,80.50364922198364,0.0,0,-0.0,,,,,,
162.99938788202135,2.240373814377643,229.7277792769665,265.78320887230626,80.06088975413508,0.0,0,-0.0,,,,,,
163.99938788202135,2.252898941344816,230.57370487956214,265.24990794893074,79.61813028628652,0.0,0,0.0,,,,,,
164.99938788202135,2.265493915232828,231.4196304821578,264.7166070255552,79.17537081843795,0.0,0,0.0,,,,,,
165.99938788202135,2.2781595194190634,232.26555608475346,264.1833061021797,78.7326113505894,0.0,0,0.0,,,,,,
166.99938788202135,2.290896550534338,233.1114816873491,263.6500051788042,78.28985188274083,0.0,0,0.0,,,,,,
167.99938788202135,2.3037058187635635,233.95740728994477,263.11670425542866,77.84709241489227,0.0,0,0.0,,,,,,
168.99938788202135,2.316588148154984,234.80333289254042,262.58340333205314,77.40433294704371,0.0,0,0.0,,,,,,
169.99938788202135,2.3295443769382853,235.64925849513608,262.0501024086776,76.96157347919515,0.0,0,0.0,,,,,,
170.99938788202135,2.3425753578518775,236.49518409773174,261.5168014853021,76.51881401134659,0.0,0,0.0,,,,,,
171.99938788202135,2.3556819584796775,237.3411097003274,260.9835005619266,76.07605454349803,0.0,0,0.0,,,,,,
172.99938788202135,2.3688650615977176,238.18703530292305,260.45019963855106,75.63329507564947,0.0,0,0.0,,,,,,
173.99938788202135,2.3821255655309295,239.0329609055187,259.91689871517553,75.19053560780091,0.0,0,0.0,,,,,,
174.99938788202135,2.395464384520466,239.87888650811436,259.3835977918,74.74777613995235,0.0,0,0.0,,,,,,
175.99938788202135,2.408882449101932,240.72481211071002,258.8502968684245,74.30501667210379,0.0,0,0.0,,,,,,
176.99938788202135,2.4223807064949168,241.57073771330568,258.316995945049,73.86225720425523,0.0,0,0.0,,,,,,
177.99938788202135,2.4359601210042414,242.41666331590133,257.78369502167345,73.41949773640667,0.0,0,0.0,,,,,,
178.99938788202135,2.449621674433335,243.262588918497,257.25039409829793,72.97673826855811,0.0,0,0.0,,,,,,
179.99938788202135,2.463366366510194,244.10851452109264,256.7170931749224,72.53397880070955,0.0,0,0.0,,,,,,
180.99938788202135,2.4771952153263794,244.9544401236883,256.1837922515469,72.09121933286099,0.0,0,0.0,,,,,,
181.99938788202135,2.4910753116241273,245.80036572628396,255.65049132817137,72.0,0.0,0,0.0,,,,,,
182.20530829738283,2.493939444178688,246.0,255.60000000000002,71.79251758691706,0.0,0,0.0,,,,,,
183.20530829738283,2.5079669078749864,246.75568908278981,254.9450694615822,70.7849321431973,0.0,0,0.0,,,,,,
184.20530829738283,2.5221954762822936,247.51137816557963,254.29013892316436,69.77734669947753,0.0,0,0.0,,,,,,
185.20530829738283,2.5366309995459493,248.26706724836944,253.63520838474653,68.76976125575777,0.0,0,0.0,,,,,,
186.20530829738283,2.5512795868505216,249.02275633115926,252.9802778463287,67.76217581203801,0.0,0,0.0,,,,,,
187.20530829738283,2.5661476219422843,249.77844541394907,252.32534730791087,66.75459036831825,0.0,0,0.0,,,,,,
188.20530829738283,2.5812417798320717,250.5341344967389,251.67041676949304,65.74700492459849,0.0,0,0.0,,,,,,
189.20530829738283,2.596569044787889,251.2898235795287,251.01548623107522,64.73941948087872,0.0,0,0.0,,,,,,
190.20530829738283,2.6121367297386646,252.04551266231852,250.36055569265739,63.73183403715897,0.0,0,0.0,,,,,,
