Distance (in),Time (s),X (in),Y (in),Velocity (in/s),Orientation (deg),Touch,Rotational Velocity (deg/s),Way X (in),Way Y (in),Way Velocity (in/s),Way Orientation (deg),Way Turn Radius (in),Touch this Point
0.0,0.0,74.0,176.0,12.0,0.0,0,0.0,74.0,176.0,12.0,0.0,3.0,0
1.0000000000000036,0.07918168833087882,74.98871550422477,176.149805379428,13.258365187195164,0.0,0,0.0,140.0,186.0,96.0,0.0,3.0,0
2.000000000000007,0.15118864130662732,75.97743100844954,176.29961075885598,14.516730374390328,0.0,0,0.0,210.0,186.0,96.0,300.0,20.0,0
3.0000000000000107,0.2172130534443164,76.96614651267431,176.44941613828396,15.775095561585491,0.0,0,0.0,252.0,157.0,60.0,325.0,20.0,0
4.000000000000014,0.27817276106083505,77.95486201689909,176.59922151771195,17.033460748780655,0.0,0,0.0,282.0,132.0,12.0,325.0,3.0,0.0
5.000000000000018,0.33478942826153024,78.94357752112386,176.74902689713994,18.29182593597582,0.0,0,0.0,,,,,,
6.000000000000021,0.38764073364712903,79.93229302534863,176.89883227656793,19.550191123170983,0.0,0,0.0,,,,,,
7.000000000000025,0.43719628547126854,80.9210085295734,177.04863765599592,20.808556310366146,0.0,0,0.0,,,,,,
8.000000000000028,0.483842995951314,81.90972403379817,177.1984430354239,22.06692149756131,0.0,0,0.0,,,,,,
9.000000000000032,0.5279034212993607,82.89843953802294,177.3482484148519,23.325286684756474,0.0,0,0.0,,,,,,
10.000000000000036,0.569649284602775,83.88715504224771,177.49805379427988,24.583651871951638,0.0,0,0.0,,,,,,
11.000000000000039,0.60931162408969,84.87587054647248,177.64785917370787,25.8420170591468,0.0,0,-0.0,,,,,,
12.000000000000043,0.6470885292967923,85.86458605069726,177.79766455313586,27.100382246341965,0.0,0,-0.0,,,,,,
13.000000000000046,0.6831511219040762,86.85330155492203,177.94746993256385,28.35874743353713,0.0,0,-0.0,,,,,,
14.00000000000005,0.7176482384302971,87.8420170591468,178.09727531199184,29.617112620732293,0.0,0,-0.0,,,,,,
15.000000000000053,0.7507101388354162,88.83073256337157,178.24708069141982,30.875477807927457,0.0,0,-0.0,,,,,,
16.000000000000057,0.782451474474495,89.81944806759634,178.3968860708478,32.13384299512262,0.0,0,-0.0,,,,,,
17.00000000000006,0.8129736860844108,90.80816357182111,178.5466914502758,33.39220818231778,0.0,0,-0.0,,,,,,
18.000000000000064,0.8423669582932568,91.79687907604588,178.6964968297038,34.65057336951294,0.0,0,-0.0,,,,,,
19.000000000000068,0.870711825560639,92.78559458027065,178.84630220913178,35.9089385567081,0.0,0,-0.0,,,,,,
20.00000000000007,0.8980805015767466,93.77431008449543,178.99610758855977,37.16730374390326,0.0,0,-0.0,,,,,,
21.000000000000075,0.9245379873618161,94.7630255887202,179.14591296798775,38.42566893109842,0.0,0,-0.0,,,,,,
22.000000000000078,0.950143000848237,95.75174109294497,179.29571834741574,39.68403411829358,0.0,0,-0.0,,,,,,
23.00000000000008,0.974948761379498,96.74045659716974,179.44552372684373,40.94239930548874,0.0,0,-0.0,,,,,,
24.000000000000085,0.9990036554758418,97.72917210139451,179.59532910627172,42.2007644926839,0.0,0,-0.0,,,,,,
25.00000000000009,1.0223518047972848,98.71788760561928,179.7451344856997,43.45912967987906,0.0,0,-0.0,,,,,,
26.000000000000092,1.0450335530528558,99.70660310984405,179.8949398651277,44.71749486707422,0.0,0,-0.0,,,,,,
27.000000000000096,1.0670858853514522,100.69531861406882,180.04474524455568,45.97586005426938,0.0,0,-0.0,,,,,,
28.0000000000001,1.0885427909390233,101.6840341182936,180.19455062398367,47.23422524146454,0.0,0,0.0,,,,,,
29.000000000000103,1.1094355782525807,102.67274962251837,180.34435600341166,48.4925904286597,0.0,0,0.0,,,,,,
30.000000000000107,1.1297931496201064,103.66146512674314,180.49416138283965,49.75095561585486,0.0,0,0.0,,,,,,
31.00000000000011,1.149642241654006,104.65018063096791,180.64396676226764,51.009320803050024,0.0,0,0.0,,,,,,
32.000000000000114,1.1690076363541344,105.63889613519268,180.79377214169563,52.267685990245184,0.0,0,0.0,,,,,,
33.000000000000114,1.1879123471011417,106.62761163941745,180.94357752112361,53.526051177440344,0.0,0,0.0,,,,,,
34.000000000000114,1.206377783040868,107.61632714364222,181.0933829005516,54.784416364635504,0.0,0,0.0,,,,,,
35.000000000000114,1.2244238948040425,108.605042647867,181.2431882799796,56.042781551830664,0.0,0,0.0,,,,,,
36.000000000000114,1.2420693040479123,109.59375815209177,181.39299365940758,57.301146739025825,0.0,0,0.0,,,,,,
37.000000000000114,1.259331418928327,110.58247365631654,181.54279903883557,58.559511926220985,0.0,0,0.0,,,,,,
38.000000000000114,1.2762265372970072,111.57118916054131,181.69260441826356,59.817877113416145,0.0,0,0.0,,,,,,
39.000000000000114,1.2927699391571967,112.55990466476608,181.84240979769154,61.076242300611305,0.0,0,0.0,,,,,,
40.000000000000114,1.3089759696920233,113.54862016899085,181.99221517711953,62.334607487806466,0.0,0,0.0,,,,,,
41.000000000000114,1.3248581139960294,114.53733567321562,182.14202055654752,63.592972675001626,0.0,0,0.0,,,,,,
42.000000000000114,1.340429064485275,115.5260511774404,182.2918259359755,64.85133786219679,0.0,0,0.0,,,,,,
43.000000000000114,1.355700781830208,116.51476668166517,182.4416313154035,66.10970304939194,0.0,0,0.0,,,,,,
44.000000000000114,1.3706845501440716,117.50348218588994,182.5914366948315,67.36806823658709,0.0,0,0.0,,,,,,
45.000000000000114,1.3853910270646959,118.49219769011471,182.74124207425947,68.62643342378225,0.0,0,0.0,,,,,,
46.000000000000114,1.3998302892863914,119.48091319433948,182.89104745368746,69.8847986109774,0.0,0,0.0,,,,,,
47.000000000000114,1.414011874029122,120.46962869856425,183.04085283311545,71.14316379817255,0.0,0,0.0,,,,,,
48.000000000000114,1.4279448168723377,121.45834420278902,183.19065821254344,72.4015289853677,0.0,0,0.0,,,,,,
49.000000000000114,1.4416376863293021,122.44705970701379,183.34046359197143,73.65989417256286,0.0,0,0.0,,,,,,
50.000000000000114,1.455098615493191,123.43577521123856,183.49026897139942,74.91825935975801,0.0,0,0.0,,,,,,
51.000000000000114,1.4683353310476028,124.42449071546334,183.6400743508274,76.17662454695316,0.0,0,0.0,,,,,,
52.000000000000114,1.4813551799005684,125.4132062196881,183.7898797302554,77.43498973414832,0.0,0,0.0,,,,,,
53.000000000000114,1.4941651536719112,126.40192172391288,183.93968510968338,78.69335492134347,0.0,0,0.0,,,,,,
54.000000000000114,1.5067719112382794,127.39063722813765,184.08949048911137,79.95172010853862,0.0,0,0.0,,,,,,
55.00000000000011,1.5191817995178443,128.3793527323624,184.23929586853936,81.21008529573378,0.0,0,0.0,,,,,,
56.0000000000001,1.5314008726570647,129.36806823658716,184.38910124796735,82.46845048292893,0.0,0,0.0,,,,,,
57.00000000000009,1.5434349097647049,130.35678374081192,184.53890662739533,83.72681567012408,0.0,0,0.0,,,,,,
58.000000000000085,1.5552894313231327,131.34549924503668,184.68871200682332,84.98518085731924,0.0,0,0.0,,,,,,
59.00000000000008,1.5669697143935464,132.33421474926143,184.8385173862513,86.24354604451439,0.0,0,0.0,,,,,,
60.00000000000007,1.578480806719951,133.3229302534862,184.9883227656793,87.50191123170954,0.0,0,0.0,,,,,,
61.000000000000064,1.5898275398262276,134.31164575771095,185.1381281451073,88.7602764189047,0.0,0,0.0,,,,,,
62.00000000000006,1.6010145411913452,135.3003612619357,185.28793352453528,90.01864160609985,0.0,0,0.0,,,,,,
63.00000000000005,1.6120462455794946,136.28907676616046,185.43773890396326,91.277006793295,0.0,0,0.0,,,,,,
64.00000000000004,1.622926905594571,137.27779227038522,185.58754428339125,92.53537198049015,0.0,0,0.0,,,,,,
65.00000000000003,1.6336606015218644,138.26650777460998,185.73734966281924,93.7937371676853,0.0,0,0.0,,,,,,
66.00000000000001,1.644251250513954,139.25522327883473,185.88715504224723,95.05210235488043,0.0,0,0.0,,,,,,
66.75327707311449,1.6521368174753188,140.0,186.0,96.0,359.9461809997722,0,-5.166624021870461,,,,,,
67.75327707311449,1.6625534841419856,141.0,186.0,96.0,359.83854299931653,0,-10.333248043740921,,,,,,
68.75327707311449,1.6729701508086523,142.0,186.0,96.0,359.6770859986331,0,-15.499872065611381,,,,,,
69.75327707311449,1.683386817475319,143.0,186.0,96.0,359.46180999772184,0,-20.666496087481843,,,,,,
70.75327707311449,1.6938034841419858,144.0,186.0,96.0,359.1927149965827,0,-25.833120109352304,,,,,,
71.75327707311449,1.7042201508086525,145.0,186.0,96.0,358.8698009952158,0,-30.999744131222762,,,,,,
72.75327707311449,1.7146368174753193,146.0,186.0,96.0,358.4930679936211,0,-36.166368153093224,,,,,,
73.75327707311449,1.725053484141986,147.0,186.0,96.0,358.0625159917986,0,-41.332992174963685,,,,,,
74.75327707311449,1.7354701508086527,148.0,186.0,96.0,357.5781449897482,0,-46.49961619683414,,,,,,
75.75327707311449,1.7458868174753195,149.0,186.0,96.0,357.03995498747,0,-51.66624021870461,,,,,,
76.75327707311449,1.7563034841419862,150.0,186.0,96.0,356.447945984964,0,-56.83286424057506,,,,,,
77.75327707311449,1.766720150808653,151.0,186.0,96.0,355.80211798223024,0,-61.999488262445524,,,,,,
78.75327707311449,1.7771368174753197,152.0,186.0,96.0,355.1024709792686,0,-67.16611228431599,,,,,,
79.75327707311449,1.7875534841419864,153.0,186.0,96.0,354.34900497607913,0,-72.33273630618645,,,,,,
80.75327707311449,1.7979701508086532,154.0,186.0,96.0,353.5417199726619,0,-77.49936032805691,,,,,,
81.75327707311449,1.80838681747532,155.0,186.0,96.0,352.6806159690168,0,-82.66598434992737,,,,,,
82.75327707311449,1.8188034841419867,156.0,186.0,96.0,351.7656929651439,0,-87.83260837179782,,,,,,
83.75327707311449,1.8292201508086534,157.0,186.0,96.0,350.7969509610432,0,-92.99923239366828,,,,,,
84.75327707311449,1.8396368174753202,158.0,186.0,96.0,349.77438995671463,0,-98.16585641553876,,,,,,
85.75327707311449,1.850053484141987,159.0,186.0,96.0,348.69800995215826,0,-103.33248043740922,,,,,,
86.75327707311449,1.8604701508086536,160.0,186.0,96.0,347.56781094737414,0,-108.49910445927968,,,,,,
87.75327707311449,1.8708868174753204,161.0,186.0,96.0,346.3837929423621,0,-113.66572848115013,,,,,,
88.75327707311449,1.8813034841419871,162.0,186.0,96.0,345.1459559371223,0,-118.83235250302059,,,,,,
89.75327707311449,1.8917201508086539,163.0,186.0,96.0,343.8542999316547,0,-123.99897652489105,,,,,,
90.75327707311449,1.9021368174753206,164.0,186.0,96.0,342.5356765207947,0,-126.5878474425553,,,,,,
91.75327707311449,1.9125534841419873,165.0,186.0,96.0,341.2170531099348,0,-126.5878474425553,,,,,,
92.75327707311449,1.922970150808654,166.0,186.0,96.0,339.8984296990748,0,-126.5878474425553,,,,,,
93.75327707311449,1.9333868174753208,167.0,186.0,96.0,338.57980628821485,0,-126.5878474425553,,,,,,
94.75327707311449,1.9438034841419876,168.0,186.0,96.0,337.2611828773549,0,-126.5878474425553,,,,,,
95.75327707311449,1.9542201508086543,169.0,186.0,96.0,335.9425594664949,0,-126.5878474425553,,,,,,
96.75327707311449,1.964636817475321,170.0,186.0,96.0,334.623936055635,0,-126.5878474425553,,,,,,
97.75327707311449,1.9750534841419878,171.0,186.0,96.0,333.30531264477503,0,-126.5878474425553,,,,,,
98.75327707311449,1.9854701508086545,172.0,186.0,96.0,331.98668923391506,0,-126.5878474425553,,,,,,
99.75327707311449,1.9958868174753213,173.0,186.0,96.0,330.66806582305514,0,-126.5878474425553,,,,,,
100.75327707311449,2.006303484141988,174.0,186.0,96.0,329.34944241219523,0,-126.5878474425553,,,,,,
101.75327707311449,2.0167201508086543,175.0,186.0,96.0,328.0308190013353,0,-126.5878474425553,,,,,,
102.75327707311449,2.027136817475321,176.0,186.0,96.0,326.71219559047535,0,-126.5878474425553,,,,,,
103.75327707311449,2.0375534841419873,177.0,186.0,96.0,325.39357217961543,0,-126.5878474425553,,,,,,
104.75327707311449,2.047970150808654,178.0,186.0,96.0,324.07494876875546,0,-126.5878474425553,,,,,,
105.75327707311449,2.0583868174753204,179.0,186.0,96.0,322.75632535789555,0,-126.5878474425553,,,,,,
106.75327707311449,2.068803484141987,180.0,186.0,96.0,321.43770194703563,0,-126.5878474425553,,,,,,
107.75327707311449,2.0792201508086534,181.0,186.0,96.0,320.11907853617566,0,-126.5878474425553,,,,,,
108.75327707311449,2.08963681747532,182.0,186.0,96.0,318.80045512531575,0,-126.5878474425553,,,,,,
109.75327707311449,2.1000534841419864,183.0,186.0,96.0,317.4818317144558,0,-126.5878474425553,,,,,,
110.75327707311449,2.110470150808653,184.0,186.0,96.0,316.16320830359587,0,-126.5878474425553,,,,,,
111.75327707311449,2.1208868174753195,185.0,186.0,96.0,314.8713868544756,0,-124.01485911554681,,,,,,
112.75327707311449,2.131303484141986,186.0,186.0,96.0,313.6333844055832,0,-118.84823509367645,,,,,,
113.75327707311449,2.1417201508086525,187.0,186.0,96.0,312.4492009569185,0,-113.6816110718061,,,,,,
114.75327707311449,2.152136817475319,188.0,186.0,96.0,311.3188365084817,0,-108.51498704993575,,,,,,
115.75327707311449,2.1625534841419856,189.0,186.0,96.0,310.2422910602727,0,-103.3483630280654,,,,,,
116.75327707311449,2.172970150808652,190.0,186.0,96.0,309.21956461229155,0,-98.18173900619506,,,,,,
117.75327707311449,2.1833868174753186,191.0,186.0,96.0,308.25065716453815,0,-93.0151149843247,,,,,,
118.75327707311449,2.193803484141985,192.0,186.0,96.0,307.3355687170126,0,-87.84849096245435,,,,,,
119.75327707311449,2.2042201508086516,193.0,186.0,96.0,306.4742992697149,0,-82.681866940584,,,,,,
120.75327707311449,2.214636817475318,194.0,186.0,96.0,305.66684882264497,0,-77.51524291871365,,,,,,
121.75327707311449,2.2250534841419847,195.0,186.0,96.0,304.91321737580284,0,-72.3486188968433,,,,,,
122.75327707311449,2.235470150808651,196.0,186.0,96.0,304.2134049291885,0,-67.18199487497296,,,,,,
123.75327707311449,2.2458868174753177,197.0,186.0,96.0,303.5674114828021,0,-62.01537085310261,,,,,,
124.75327707311449,2.2563034841419842,198.0,186.0,96.0,302.9752370366434,0,-56.84874683123225,,,,,,
125.75327707311449,2.2667201508086507,199.0,186.0,96.0,302.4368815907126,0,-51.6821228093619,,,,,,
126.75327707311449,2.2771368174753173,200.0,186.0,96.0,301.95234514500953,0,-46.51549878749155,,,,,,
127.75327707311449,2.287553484141984,201.0,186.0,96.0,301.52162769953435,0,-41.348874765621204,,,,,,
128.75327707311448,2.2979701508086503,202.0,186.0,96.0,301.1447349321679,0,-36.18225074375084,,,,,,
129.75327707311448,2.308386817475317,203.0,186.0,96.0,300.82168832952016,0,-31.015704555781284,,,,,,
130.75326200836415,2.318803327217501,203.99998399958076,185.99863204213167,96.0,300.5524495157428,0,-25.849618707094805,,,,,,
131.75315784495265,2.3292189088486315,204.99920668217922,185.9619480591452,96.0,300.3370184908359,0,-20.68353285840854,,,,,,
132.75305368154113,2.3396344904797615,205.99534716162177,185.87536960199245,96.0,300.17539525479935,0,-15.517447009722062,,,,,,
133.75294951812964,2.350050072110892,206.98591560548977,185.7391130717271,96.0,300.0675798076333,0,-10.351361161035598,,,,,,
134.75284535471815,2.3604656537420223,207.9684361085516,185.5535190387138,96.0,300.0,0,-5.185275312349319,,,,,,
135.75274119130663,2.3708812353731523,208.94045288123638,185.31905139137956,96.0,300.0,0,0.0,,,,,,
136.75263702789513,2.3813355057584173,209.899536387829,185.03629617673437,95.28945392455583,300.02755355535254,0,2.596466594109066,,,,,,
137.75253286448364,2.3918680223635844,210.84328941904394,184.7059601355587,94.57890784911166,300.08328875152296,0,5.212513298369424,,,,,,
138.75242870107212,2.402479965307518,211.76935308380027,184.3288689359199,93.8683617736675,300.16785130682797,0,7.848437666216931,,,,,,
139.7523245376606,2.413172541609985,212.67541270522077,183.90596510943172,93.15781569822335,300.281917118157,0,10.504544085773887,,,,,,
140.7522203742491,2.423946986015527,213.5592036061186,183.4383056954163,92.44726962277917,300.4261634596377,0,13.181423899401032,,,,,,
141.7522203742491,2.4348056972930117,214.38210050672103,182.87011497833365,91.73664952672152,300.60129298739673,0,15.879120267054885,,,,,,
142.7522203742491,2.4457488505199696,215.20499740732348,182.301924261251,91.02602943066387,300.8080286360938,0,18.597959482862745,,,,,,
143.7522203742491,2.456777769302228,216.02789430792592,181.73373354416836,90.31540933460622,301.047114351405,0,21.3382755734186,,,,,,
144.7522203742491,2.4678938086122155,216.85079120852836,181.16554282708572,89.60478923854856,301.3193158546832,0,24.10041054405272,,,,,,
145.7522203742491,2.479098355787951,217.6736881091308,180.59735211000307,88.89416914249091,301.62542144146914,0,26.884714634983013,,,,,,
146.7522203742491,2.490392831572116,218.49658500973325,180.02916139292043,88.18354904643326,301.96624281562896,0,29.691546587830086,,,,,,
147.7522203742491,2.5017786911931674,219.3194819103357,179.46097067583779,87.4729289503756,302.34261596100237,0,32.52127392300145,,,,,,
148.7522203742491,2.513257425490542,220.14237881093814,178.89277995875514,86.76230885431795,302.7554020525605,0,35.37427322848213,,,,,,
149.7522203742491,2.52483056208613,220.96527571154058,178.3245892416725,86.0516887582603,303.2054884091965,0,38.25093046059904,,,,,,
150.7522203742491,2.5364996666043194,221.78817261214303,177.75639852458986,85.34106866220264,303.69378949040464,0,41.15164125735953,,,,,,
151.7522203742491,2.5482663439430473,222.61106951274547,177.1882078075072,84.63044856614499,304.22124793924513,0,44.076811265000885,,,,,,
152.7522203742491,2.560132239598443,223.43396641334792,176.62001709042457,83.91982847008734,304.78883567414437,0,47.02685647842417,,,,,,
153.7522203742491,2.572099041045791,224.25686331395036,176.05182637334192,83.20920837402969,305.39755503224274,0,50.00220359622722,,,,,,
154.7522203742491,2.5841684791797137,225.0797602145528,175.48363565625928,82.49858827797203,306.0484399671782,0,53.00329039109474,,,,,,
155.7522203742491,2.5963423298166544,225.90265711515525,174.91544493917664,81.78796818191438,306.74255730438034,0,56.03056609634935,,,,,,
156.7522203742491,2.608622415262912,226.7255540157577,174.347254222094,81.07734808585673,307.4625377058549,0,57.60665281226539,,,,,,
157.7522203742491,2.6210106059516973,227.54845091636014,173.77906350501135,80.36672798979907,308.1889699029728,0,57.60665281226539,,,,,,
158.7522203742491,2.633508822152887,228.37134781696258,173.2108727879287,79.65610789374142,308.9219705712722,0,57.60665281226539,,,,,,
159.7522203742491,2.646119035759383,229.19424471756503,172.64268207084606,78.94548779768377,309.6616595801453,0,57.60665281226539,,,,,,
160.7522203742491,2.6588432721542343,230.01714161816747,172.07449135376342,78.23486770162611,310.4081601104825,0,57.60665281226539,,,,,,
161.7522203742491,2.671683612162943,230.84003851876992,171.50630063668078,77.52424760556846,311.16159877778364,0,57.60665281226539,,,,,,
162.7522203742491,2.6846421940956584,231.66293541937236,170.93810991959813,76.81362750951081,311.92210576104355,0,57.60665281226539,,,,,,
163.7522203742491,2.697721215884279,232.4858323199748,170.3699192025155,76.10300741345316,312.68981493774123,0,57.60665281226539,,,,,,
164.7522203742491,2.7109229373197934,233.30872922057725,169.80172848543285,75.3923873173955,313.4648640252814,0,57.60665281226539,,,,,,
165.7522203742491,2.7242496823955675,234.1316261211797,169.2335377683502,74.68176722133785,314.2473947292631,0,57.60665281226539,,,,,,
166.7522203742491,2.7377038417626456,234.95452302178214,168.66534705126756,73.9711471252802,315.03755289897435,0,57.60665281226539,,,,,,
167.7522203742491,2.7512878753035617,235.77741992238458,168.09715633418492,73.26052702922254,315.8354886905395,0,57.60665281226539,,,,,,
168.7522203742491,2.7650043148315855,236.60031682298703,167.52896561710227,72.54990693316489,316.6413567381754,0,57.60665281226539,,,,,,
169.7522203742491,2.7788557669228138,237.42321372358947,166.96077490001963,71.83928683710724,317.4553163340461,0,57.60665281226539,,,,,,
170.7522203742491,2.7928449158890305,238.2461106241919,166.392584182937,71.12866674104959,318.27753161723786,0,57.60665281226539,,,,,,
171.7522203742491,2.8069745268998165,239.06900752479436,165.82439346585434,70.41804664499193,319.08707773798074,0,56.143736878615684,,,,,,
172.7522203742491,2.821247449262991,239.8919044253968,165.2562027487717,69.70742654893428,319.85321977395193,0,52.58913580771982,,,,,,
173.7522203742491,2.8356666198731184,240.71480132599925,164.68801203168906,68.99680645287663,320.5745079116202,0,48.99773526293797,,,,,,
174.7522203742491,2.8502350668385223,241.5376982266017,164.1198213146064,68.28618635681897,321.24943490367593,0,45.368765330878986,,,,,,
