Distance (in),Time (s),X (in),Y (in),Velocity (in/s),Orientation (deg),Touch,Rotational Velocity (deg/s),Way X (in),Way Y (in),Way Velocity (in/s),Way Orientation (deg),Way Turn Radius (in),Touch this Point
0.0,0.0,74.0,174.0,12.0,0.0,0,0.0,74.0,174.0,12.0,0.0,3.0,0
1.0000000000000033,0.07846701560598573,74.99227787671367,174.1240347345892,13.488416815070508,0.0,0,0.0,130.0,181.0,96.0,0.0,3.0,0
2.0000000000000067,0.14872812234908311,75.98455575342734,174.2480694691784,14.976833630141016,0.0,0,0.0,202.0,188.0,96.0,0.0,20.0,0
3.0000000000000098,0.21233713742603874,76.97683363014102,174.3721042037676,16.465250445211524,0.0,0,0.0,241.0,202.0,60.0,0.0,20.0,0
4.000000000000013,0.27044471701680517,77.96911150685469,174.4961389383568,17.95366726028203,0.0,0,0.0,288.0,231.0,12.0,0.0,3.0,0
5.000000000000017,0.32392672843702225,78.96138938356836,174.620173672946,19.44208407535254,0.0,0,0.0,,,,,,
6.00000000000002,0.3734652953059863,79.95366726028203,174.7442084075352,20.930500890423048,0.0,0,0.0,,,,,,
7.000000000000024,0.41960201558459237,80.9459451369957,174.8682431421244,22.418917705493556,0.0,0,0.0,,,,,,
8.000000000000027,0.46277408118231506,81.93822301370938,174.99227787671362,23.907334520564063,0.0,0,0.0,,,,,,
9.00000000000003,0.5033394933724032,82.93050089042305,175.11631261130282,25.39575133563457,0.0,0,-0.0,,,,,,
10.000000000000034,0.5415950993421598,83.92277876713672,175.24034734589202,26.88416815070508,0.0,0,-0.0,,,,,,
11.000000000000037,0.5777897703497745,84.91505664385039,175.36438208048122,28.372584965775587,0.0,0,-0.0,,,,,,
12.00000000000004,0.6121342116204478,85.90733452056406,175.48841681507042,29.861001780846095,0.0,0,-0.0,,,,,,
13.000000000000044,0.6448083868293354,86.89961239727774,175.61245154965962,31.349418595916603,0.0,0,-0.0,,,,,,
14.000000000000048,0.6759672209459171,87.89189027399141,175.73648628424883,32.83783541098711,0.0,0,-0.0,,,,,,
15.000000000000052,0.7057450392765706,88.88416815070508,175.86052101883803,34.32625222605762,0.0,0,-0.0,,,,,,
16.000000000000053,0.7342590645255613,89.87644602741875,175.98455575342723,35.81466904112813,0.0,0,-0.0,,,,,,
17.000000000000057,0.7616122019790901,90.86872390413242,176.10859048801643,37.303085856198635,0.0,0,-0.0,,,,,,
18.00000000000006,0.7878952799049017,91.8610017808461,176.23262522260563,38.79150267126914,0.0,0,-0.0,,,,,,
19.000000000000064,0.8131888682257683,92.85327965755977,176.35665995719484,40.27991948633965,0.0,0,-0.0,,,,,,
20.000000000000068,0.8375647672719808,93.84555753427344,176.48069469178404,41.76833630141016,0.0,0,-0.0,,,,,,
21.00000000000007,0.8610872359185021,94.83783541098711,176.60472942637324,43.25675311648067,0.0,0,-0.0,,,,,,
22.000000000000075,0.8838140120016611,95.83011328770078,176.72876416096244,44.745169931551175,0.0,0,-0.0,,,,,,
23.000000000000078,0.9057971657951865,96.82239116441446,176.85279889555164,46.23358674662168,0.0,0,-0.0,,,,,,
24.00000000000008,0.9270838182810794,97.81466904112813,176.97683363014085,47.72200356169219,0.0,0,0.0,,,,,,
25.000000000000085,0.9477167491285517,98.8069469178418,177.10086836473005,49.2104203767627,0.0,0,0.0,,,,,,
26.00000000000009,0.9677349140981677,99.79922479455547,177.22490309931925,50.698837191833206,0.0,0,0.0,,,,,,
27.000000000000092,0.9871738875949523,100.79150267126914,177.34893783390845,52.187254006903714,0.0,0,0.0,,,,,,
28.000000000000096,1.0060662429991971,101.78378054798281,177.47297256849765,53.67567082197422,0.0,0,0.0,,,,,,
29.0000000000001,1.0244418809858715,102.77605842469649,177.59700730308685,55.16408763704473,0.0,0,0.0,,,,,,
30.000000000000103,1.042328314140669,103.76833630141016,177.72104203767606,56.65250445211524,0.0,0,0.0,,,,,,
31.000000000000107,1.0597509146726063,104.76061417812383,177.84507677226526,58.140921267185746,0.0,0,0.0,,,,,,
32.00000000000011,1.076733130819942,105.7528920548375,177.96911150685446,59.62933808225625,0.0,0,0.0,,,,,,
33.00000000000011,1.0932966765803205,106.74516993155117,178.09314624144366,61.11775489732675,0.0,0,0.0,,,,,,
34.00000000000011,1.1094616986161052,107.73744780826485,178.21718097603286,62.60617171239725,0.0,0,0.0,,,,,,
35.00000000000011,1.125246923552512,108.72972568497852,178.34121571062207,64.09458852746775,0.0,0,0.0,,,,,,
36.00000000000011,1.1406697883691193,109.72200356169219,178.46525044521127,65.58300534253826,0.0,0,0.0,,,,,,
37.00000000000011,1.1557465561611162,110.71428143840586,178.58928517980047,67.07142215760877,0.0,0,0.0,,,,,,
38.00000000000011,1.170492419196916,111.70655931511953,178.71331991438967,68.55983897267927,0.0,0,0.0,,,,,,
39.00000000000011,1.1849215909091222,112.6988371918332,178.83735464897887,70.04825578774978,0.0,0,0.0,,,,,,
40.00000000000011,1.1990473882149122,113.69111506854688,178.96138938356808,71.53667260282029,0.0,0,0.0,,,,,,
41.00000000000011,1.212882305360661,114.68339294526055,179.08542411815728,73.0250894178908,0.0,0,0.0,,,,,,
42.00000000000011,1.226438080316883,115.67567082197422,179.20945885274648,74.5135062329613,0.0,0,0.0,,,,,,
43.00000000000011,1.2397257546075118,116.6679486986879,179.33349358733568,76.00192304803181,0.0,0,0.0,,,,,,
44.00000000000011,1.2527557273375243,117.66022657540157,179.45752832192488,77.49033986310232,0.0,0,0.0,,,,,,
45.00000000000011,1.2655378040811733,118.65250445211524,179.58156305651409,78.97875667817283,0.0,0,0.0,,,,,,
46.00000000000011,1.2780812412065352,119.64478232882891,179.7055977911033,80.46717349324334,0.0,0,0.0,,,,,,
47.00000000000011,1.2903947861382268,120.63706020554258,179.8296325256925,81.95559030831384,0.0,0,0.0,,,,,,
48.00000000000011,1.302486713996914,121.62933808225625,179.9536672602817,83.44400712338435,0.0,0,0.0,,,,,,
49.00000000000011,1.3143648609999554,122.62161595896993,180.0777019948709,84.93242393845486,0.0,0,0.0,,,,,,
50.00000000000011,1.3260366549607834,123.6138938356836,180.2017367294601,86.42084075352537,0.0,0,0.0,,,,,,
51.00000000000011,1.3375091431842712,124.60617171239727,180.3257714640493,87.90925756859588,0.0,0,0.0,,,,,,
52.00000000000011,1.3487890180204027,125.59844958911094,180.4498061986385,89.39767438366638,0.0,0,0.0,,,,,,
53.00000000000011,1.359882640308239,126.59072746582461,180.5738409332277,90.88609119873689,0.0,0,0.0,,,,,,
54.00000000000011,1.370796060915799,127.58300534253829,180.6978756678169,92.3745080138074,0.0,0,0.0,,,,,,
55.00000000000011,1.3815350405584652,128.57528321925196,180.8219104024061,93.86292482887791,0.0,0,0.0,,,,,,
56.00000000000011,1.3921050680584117,129.56756109596563,180.9459451369953,95.35134164394842,0.0,0,0.0,,,,,,
56.43580423808976,1.3966610560118549,130.0,181.0,95.95918970207434,0.0,0,0.0,,,,,,
57.43580423808976,1.4070799372496015,130.9953071617667,181.09676597406065,96.0,0.0,0,0.0,,,,,,
58.43580423808976,1.4174966039162682,131.9906143235334,181.1935319481213,96.0,0.0,0,0.0,,,,,,
59.43580423808976,1.427913270582935,132.9859214853001,181.29029792218194,96.0,0.0,0,0.0,,,,,,
60.43580423808976,1.4383299372496017,133.9812286470668,181.38706389624258,96.0,0.0,0,0.0,,,,,,
61.43580423808976,1.4487466039162684,134.97653580883352,181.48382987030323,96.0,0.0,0,0.0,,,,,,
62.43580423808976,1.4591632705829352,135.97184297060022,181.58059584436387,96.0,0.0,0,0.0,,,,,,
63.43580423808976,1.469579937249602,136.96715013236692,181.67736181842452,96.0,0.0,0,0.0,,,,,,
64.43580423808976,1.4799966039162686,137.96245729413363,181.77412779248516,96.0,0.0,0,0.0,,,,,,
65.43580423808976,1.4904132705829354,138.95776445590033,181.8708937665458,96.0,0.0,0,0.0,,,,,,
66.43580423808976,1.5008299372496021,139.95307161766704,181.96765974060645,96.0,0.0,0,0.0,,,,,,
67.43580423808976,1.5112466039162689,140.94837877943374,182.0644257146671,96.0,0.0,0,0.0,,,,,,
68.43580423808976,1.5216632705829356,141.94368594120044,182.16119168872774,96.0,0.0,0,0.0,,,,,,
69.43580423808976,1.5320799372496023,142.93899310296715,182.25795766278839,96.0,0.0,0,0.0,,,,,,
70.43580423808976,1.542496603916269,143.93430026473385,182.35472363684903,96.0,0.0,0,0.0,,,,,,
71.43580423808976,1.5529132705829358,144.92960742650055,182.45148961090968,96.0,0.0,0,0.0,,,,,,
72.43580423808976,1.5633299372496026,145.92491458826726,182.54825558497032,96.0,0.0,0,0.0,,,,,,
73.43580423808976,1.5737466039162693,146.92022175003396,182.64502155903097,96.0,0.0,0,0.0,,,,,,
74.43580423808976,1.584163270582936,147.91552891180066,182.7417875330916,96.0,0.0,0,0.0,,,,,,
75.43580423808976,1.5945799372496028,148.91083607356737,182.83855350715226,96.0,0.0,0,0.0,,,,,,
76.43580423808976,1.6049966039162695,149.90614323533407,182.9353194812129,96.0,0.0,0,0.0,,,,,,
77.43580423808976,1.6154132705829363,150.90145039710077,183.03208545527355,96.0,0.0,0,0.0,,,,,,
78.43580423808976,1.625829937249603,151.89675755886748,183.1288514293342,96.0,0.0,0,0.0,,,,,,
79.43580423808976,1.6362466039162697,152.89206472063418,183.22561740339484,96.0,0.0,0,0.0,,,,,,
80.43580423808976,1.6466632705829365,153.88737188240088,183.32238337745548,96.0,0.0,0,0.0,,,,,,
81.43580423808976,1.6570799372496032,154.8826790441676,183.41914935151613,96.0,0.0,0,-0.0,,,,,,
82.43580423808976,1.66749660391627,155.8779862059343,183.51591532557677,96.0,0.0,0,-0.0,,,,,,
83.43580423808976,1.6779132705829367,156.873293367701,183.61268129963742,96.0,0.0,0,-0.0,,,,,,
84.43580423808976,1.6883299372496035,157.8686005294677,183.70944727369806,96.0,0.0,0,-0.0,,,,,,
85.43580423808976,1.6987466039162702,158.8639076912344,183.8062132477587,96.0,0.0,0,-0.0,,,,,,
86.43580423808976,1.709163270582937,159.8592148530011,183.90297922181935,96.0,0.0,0,-0.0,,,,,,
87.43580423808976,1.7195799372496037,160.8545220147678,183.99974519588,96.0,0.0,0,-0.0,,,,,,
88.43580423808976,1.7299966039162704,161.8498291765345,184.09651116994064,96.0,0.0,0,-0.0,,,,,,
89.43580423808976,1.7404132705829372,162.84513633830122,184.19327714400129,96.0,0.0,0,-0.0,,,,,,
90.43580423808976,1.750829937249604,163.84044350006792,184.29004311806193,96.0,0.0,0,-0.0,,,,,,
91.43580423808976,1.7612466039162706,164.83575066183462,184.38680909212258,96.0,0.0,0,-0.0,,,,,,
92.43580423808976,1.7716632705829374,165.83105782360133,184.48357506618322,96.0,0.0,0,-0.0,,,,,,
93.43580423808976,1.7820799372496041,166.82636498536803,184.58034104024387,96.0,0.0,0,-0.0,,,,,,
94.43580423808976,1.7924966039162709,167.82167214713473,184.6771070143045,96.0,0.0,0,-0.0,,,,,,
95.43580423808976,1.8029132705829376,168.81697930890144,184.77387298836516,96.0,0.0,0,-0.0,,,,,,
96.43580423808976,1.8133299372496043,169.81228647066814,184.8706389624258,96.0,0.0,0,-0.0,,,,,,
97.43580423808976,1.823746603916271,170.80759363243484,184.96740493648645,96.0,0.0,0,-0.0,,,,,,
98.43580423808976,1.8341632705829378,171.80290079420155,185.0641709105471,96.0,0.0,0,-0.0,,,,,,
99.43580423808976,1.8445799372496046,172.79820795596825,185.16093688460774,96.0,0.0,0,-0.0,,,,,,
100.43580423808976,1.8549966039162713,173.79351511773496,185.25770285866838,96.0,0.0,0,-0.0,,,,,,
101.43580423808976,1.865413270582938,174.78882227950166,185.35446883272903,96.0,0.0,0,-0.0,,,,,,
102.43580423808976,1.8758299372496048,175.78412944126836,185.45123480678967,96.0,0.0,0,-0.0,,,,,,
103.43580423808976,1.8862466039162715,176.77943660303507,185.54800078085032,96.0,0.0,0,0.0,,,,,,
104.43580423808976,1.8966632705829383,177.77474376480177,185.64476675491096,96.0,0.0,0,0.0,,,,,,
105.43580423808976,1.907079937249605,178.77005092656847,185.7415327289716,96.0,0.0,0,0.0,,,,,,
106.43580423808976,1.9174966039162717,179.76535808833518,185.83829870303225,96.0,0.0,0,0.0,,,,,,
107.43580423808976,1.9279132705829385,180.76066525010188,185.9350646770929,96.0,0.0,0,0.0,,,,,,
108.43580423808976,1.9383299372496052,181.75597241186858,186.03183065115354,96.0,0.0,0,0.0,,,,,,
109.43580423808976,1.948746603916272,182.7512795736353,186.1285966252142,96.0,0.0,0,0.0,,,,,,
110.43580423808976,1.9591632705829387,183.746586735402,186.22536259927483,96.0,0.0,0,0.0,,,,,,
111.43580423808976,1.9695799372496055,184.7418938971687,186.32212857333548,96.0,0.0,0,0.0,,,,,,
112.43580423808976,1.9799966039162722,185.7372010589354,186.41889454739612,96.0,0.0,0,0.0,,,,,,
113.43580423808976,1.990413270582939,186.7325082207021,186.51566052145677,96.0,0.0,0,0.0,,,,,,
114.43580423808976,2.0008299372496055,187.7278153824688,186.6124264955174,96.0,0.0,0,0.0,,,,,,
115.43580423808976,2.011246603916272,188.7231225442355,186.70919246957806,96.0,0.0,0,0.0,,,,,,
116.43580423808976,2.0216632705829385,189.7184297060022,186.8059584436387,96.0,0.0,0,0.0,,,,,,
117.43580423808976,2.032079937249605,190.71373686776892,186.90272441769935,96.0,0.0,0,0.0,,,,,,
118.43580423808976,2.0424966039162715,191.70904402953562,186.99949039176,96.0,0.0,0,0.0,,,,,,
119.43580423808976,2.052913270582938,192.70435119130232,187.09625636582064,96.0,0.0,0,0.0,,,,,,
120.43580423808976,2.0633299372496046,193.69965835306903,187.19302233988128,96.0,0.0,0,0.0,,,,,,
121.43580423808976,2.073746603916271,194.69496551483573,187.28978831394193,96.0,0.0,0,0.0,,,,,,
122.43580423808976,2.0841632705829376,195.69027267660243,187.38655428800257,96.0,0.0,0,0.0,,,,,,
123.43580423808976,2.094579937249604,196.68557983836914,187.48332026206322,96.0,0.0,0,0.0,,,,,,
124.43580423808976,2.1049966039162706,197.68088700013584,187.58008623612386,96.0,0.0,0,0.0,,,,,,
125.43580423808976,2.115413270582937,198.67619416190254,187.6768522101845,96.0,0.0,0,0.0,,,,,,
126.43580013209854,2.125829894478862,199.67144223633048,187.77418184792086,96.0,0.0,0,0.0,,,,,,
127.43569596868703,2.136245476109992,200.66297252474786,187.90325303439545,96.0,0.0,0,0.0,,,,,,
128.43559180527552,2.146661057741122,201.64681278781742,188.08171877561827,96.0,0.0,0,0.0,,,,,,
129.435487641864,2.1571244805096366,202.62050393725562,188.30913300017937,95.12213253912644,0.0,0,0.0,,,,,,
130.435487641864,2.167686021474822,203.56169860801734,188.64699775378614,94.24417362705742,0.0,0,0.0,,,,,,
131.435487641864,2.1783464119663853,204.50289327877906,188.9848625073929,93.3662147149884,0.0,0,0.0,,,,,,
132.435487641864,2.189107519807519,205.44408794954077,189.32272726099967,92.48825580291938,0.0,0,0.0,,,,,,
133.435487641864,2.199971266266878,206.3852826203025,189.66059201460644,91.61029689085036,0.0,0,0.0,,,,,,
134.435487641864,2.2109396281172478,207.3264772910642,189.9984567682132,90.73233797878135,0.0,0,0.0,,,,,,
135.435487641864,2.2220146397943035,208.26767196182593,190.33632152181997,89.85437906671233,0.0,0,0.0,,,,,,
136.435487641864,2.2331983956613475,209.20886663258764,190.67418627542673,88.97642015464331,0.0,0,0.0,,,,,,
137.435487641864,2.2444930523863382,210.15006130334936,191.0120510290335,88.09846124257429,0.0,0,0.0,,,,,,
138.435487641864,2.255900831437954,211.09125597411108,191.34991578264027,87.22050233050527,0.0,0,0.0,,,,,,
139.435487641864,2.267424021707921,212.0324506448728,191.68778053624703,86.34254341843625,0.0,0,0.0,,,,,,
140.435487641864,2.2790649822673417,212.9736453156345,192.0256452898538,85.46458450636723,0.0,0,0.0,,,,,,
141.435487641864,2.2908261452653353,213.91483998639623,192.36351004346056,84.58662559429821,0.0,0,0.0,,,,,,
142.435487641864,2.30271001897889,214.85603465715795,192.70137479706733,83.7086666822292,0.0,0,0.0,,,,,,
143.435487641864,2.314719191023497,215.79722932791967,193.0392395506741,82.83070777016017,0.0,0,0.0,,,,,,
144.435487641864,2.3268563317348487,216.73842399868138,193.37710430428086,81.95274885809116,0.0,0,0.0,,,,,,
145.435487641864,2.339124197732649,217.6796186694431,193.71496905788763,81.07478994602214,0.0,0,-0.0,,,,,,
146.435487641864,2.351525635678438,218.62081334020482,194.0528338114944,80.19683103395312,0.0,0,-0.0,,,,,,
147.435487641864,2.3640635862402464,219.56200801096654,194.39069856510116,79.3188721218841,0.0,0,-0.0,,,,,,
148.435487641864,2.3767410882778846,220.50320268172825,194.72856331870793,78.44091320981508,0.0,0,-0.0,,,,,,
149.435487641864,2.389561283263775,221.44439735248997,195.0664280723147,77.56295429774606,0.0,0,-0.0,,,,,,
150.435487641864,2.4025274199554123,222.3855920232517,195.40429282592146,76.68499538567704,0.0,0,-0.0,,,,,,
151.435487641864,2.415642859336832,223.3267866940134,195.74215757952823,75.80703647360802,0.0,0,-0.0,,,,,,
152.435487641864,2.428911079847901,224.26798136477512,196.080022333135,74.929077561539,0.0,0,-0.0,,,,,,
153.435487641864,2.4423356829217706,225.20917603553684,196.41788708674176,74.05111864946998,0.0,0,-0.0,,,,,,
154.435487641864,2.4559203988525526,226.15037070629856,196.75575184034852,73.17315973740097,0.0,0,-0.0,,,,,,
155.435487641864,2.4696690930171337,227.09156537706028,197.0936165939553,72.29520082533195,0.0,0,-0.0,,,,,,
156.435487641864,2.4835857724770873,228.032760047822,197.43148134756206,71.41724191326293,0.0,0,-0.0,,,,,,
157.435487641864,2.497674592988897,228.9739547185837,197.76934610116882,70.53928300119391,0.0,0,0.0,,,,,,
158.435487641864,2.5119398664531665,229.91514938934543,198.1072108547756,69.66132408912489,0.0,0,0.0,,,,,,
159.435487641864,2.526386068836233,230.85634406010715,198.44507560838235,68.78336517705587,0.0,0,0.0,,,,,,
160.435487641864,2.5410178486005863,231.79753873086887,198.78294036198912,67.90540626498685,0.0,0,0.0,,,,,,
161.435487641864,2.555840035683826,232.73873340163058,199.12080511559589,67.02744735291783,0.0,0,0.0,,,,,,
162.435487641864,2.5708576510695496,233.6799280723923,199.45866986920265,66.14948844084881,0.0,0,0.0,,,,,,
163.435487641864,2.5860759169976237,234.62112274315402,199.79653462280942,65.2715295287798,0.0,0,0.0,,,,,,
164.435487641864,2.60150026786579,235.56231741391574,200.13439937641618,64.39357061671078,0.0,0,0.0,,,,,,
165.435487641864,2.6171363618795516,236.50351208467745,200.47226413002295,63.51561170464176,0.0,0,0.0,,,,,,
166.435487641864,2.632990093512823,237.44470675543917,200.81012888362972,62.63765279257275,0.0,0,0.0,,,,,,
167.435487641864,2.6490676068480243,238.3859014262009,201.14799363723648,61.75969388050374,0.0,0,0.0,,,,,,
168.4398927541167,2.6654476636799895,239.35483946744748,201.41254741578558,60.8778674608738,0.0,0,0.0,,,,,,
169.4397885907052,2.6819915663412797,240.28087223948012,201.78971447313359,60.00000000000022,0.0,0,0.0,,,,,,
170.4396844272937,2.6987786618323626,241.18689721547946,202.21269251853596,59.12672291876212,0.0,0,0.0,,,,,,
171.4396844272937,2.715817328340085,242.03793322827914,202.73779984558257,58.253354864528,0.0,0,0.0,,,,,,
172.4396844272937,2.733113377827475,242.88896924107883,203.26290717262918,57.37998681029388,0.0,0,0.0,,,,,,
173.4396844272937,2.75067470551877,243.7400052538785,203.7880144996758,56.50661875605976,0.0,0,0.0,,,,,,
174.4396844272937,2.768509575575856,244.5910412666782,204.3131218267224,55.63325070182564,0.0,0,0.0,,,,,,
175.4396844272937,2.7866266444488774,245.44207727947787,204.83822915376902,54.75988264759152,0.0,0,0.0,,,,,,
176.4396844272937,2.805034986103912,246.29311329227755,205.36333648081563,53.8865145933574,0.0,0,0.0,,,,,,
177.4396844272937,2.8237441193117467,247.14414930507724,205.88844380786225,53.01314653912328,0.0,0,0.0,,,,,,
178.4396844272937,2.842764037203173,247.99518531787692,206.41355113490886,52.139778484889156,0.0,0,0.0,,,,,,
179.4396844272937,2.8621052393205186,248.8462213306766,206.93865846195547,51.266410430655036,0.0,0,0.0,,,,,,
180.4396844272937,2.8817787664227694,249.69725734347628,207.46376578900208,50.393042376420915,0.0,0,0.0,,,,,,
181.4396844272937,2.901796238333108,250.54829335627596,207.9888731160487,49.519674322186795,0.0,0,0.0,,,,,,
182.4396844272937,2.922169895153696,251.39932936907564,208.5139804430953,48.646306267952674,0.0,0,0.0,,,,,,
183.4396844272937,2.9429126422136997,252.25036538187533,209.03908777014192,47.772938213718554,0.0,0,0.0,,,,,,
184.4396844272937,2.964038099163841,253.101401394675,209.56419509718853,46.89957015948443,0.0,0,0.0,,,,,,
185.4396844272937,2.9855606536851234,253.9524374074747,210.08930242423514,46.02620210525031,0.0,0,0.0,,,,,,
186.4396844272937,3.007495520342107,254.80347342027437,210.61440975128176,45.15283405101619,0.0,0,0.0,,,,,,
187.4396844272937,3.029858805183614,255.65450943307405,211.13951707832837,44.27946599678207,0.0,0,0.0,,,,,,
188.4396844272937,3.0526675767778046,256.50554544587374,211.66462440537498,43.40609794254795,0.0,0,0.0,,,,,,
189.4396844272937,3.075939944466322,257.3565814586734,212.1897317324216,42.53272988831383,0.0,0,0.0,,,,,,
