Distance (in),Time (s),X (in),Y (in),Velocity (in/s),Orientation (deg),Touch,Rotational Velocity (deg/s),Way X (in),Way Y (in),Way Velocity (in/s),Way Orientation (deg),Way Turn Radius (in),Touch this Point
0.0,0.0,74.0,174.0,12.0,0.0,0,0.0,74.0,174.0,12.0,0.0,3.0,0
1.0000000000000016,0.07291393611010336,74.55470019622523,174.83205029433785,15.429598602109646,0.0,0,0.0,78.0,180.0,36.0,0.0,10.0,0
1.9999865550589015,0.1312413212691994,75.11021653418697,175.66353974619886,18.859151093468085,0.0,0,-0.0,140.0,180.0,96.0,0.0,3.0,0.0
2.9995699404724605,0.17982791144806345,75.71680083397551,176.45803482588462,22.287320874774448,0.0,0,-0.0,210.0,180.0,96.0,0.0,20.0,0
3.999153325886014,0.2214747797683093,76.3996718971715,177.18800335633262,25.715490656080792,0.0,0,0.0,250.0,132.0,60.0,0.0,20.0,0
4.998736711299587,0.25791658994909394,77.15200670183863,177.84615173328217,29.143660437387204,0.0,0,0.0,282.0,132.0,12.0,0.0,3.0,0
5.99832009671315,0.2903098634947552,77.96628816729748,178.4259039557057,32.57183021869358,0.0,0,0.0,,,,,,
6.997903482126725,0.32003959126864295,78.83438026231087,178.92146733103738,34.67287467843836,0.0,0,0.0,,,,,,
7.997486867540294,0.348020787681155,79.74760929761852,179.32789035384232,36.77391913818313,0.0,0,0.0,,,,,,
8.997070252953861,0.37444770501978786,80.69685059057302,179.64111217962227,38.874963597927895,0.0,0,0.0,,,,,,
9.996653638367423,0.39948392849180253,81.6726196359526,179.85800319943144,40.97600805767265,0.0,0,0.0,,,,,,
10.996653638367423,0.4232781740542976,82.6726196359526,179.85800319943144,43.07792820801156,0.0,0,0.0,,,,,,
11.996653638367423,0.4459390667009209,83.6726196359526,179.85800319943144,45.179848358350476,0.0,0,0.0,,,,,,
12.996653638367423,0.46756966399921396,84.6726196359526,179.85800319943144,47.28176850868939,0.0,0,0.0,,,,,,
13.996653638367423,0.4882595780450342,85.6726196359526,179.85800319943144,49.3836886590283,0.0,0,0.0,,,,,,
14.996653638367423,0.5080872168825769,86.6726196359526,179.85800319943144,51.485608809367214,0.0,0,0.0,,,,,,
15.996653638367423,0.5271215775428204,87.6726196359526,179.85800319943144,53.58752895970613,0.0,0,0.0,,,,,,
16.996653638367423,0.5454236941947231,88.6726196359526,179.85800319943144,55.68944911004504,0.0,0,0.0,,,,,,
17.996653638367423,0.5630478180662264,89.6726196359526,179.85800319943144,57.79136926038395,0.0,0,0.0,,,,,,
18.996653638367423,0.5800423866241333,90.6726196359526,179.85800319943144,59.893289410722865,0.0,0,0.0,,,,,,
19.996653638367423,0.5964508256226558,91.6726196359526,179.85800319943144,61.99520956106178,0.0,0,-0.0,,,,,,
20.996653638367423,0.6123122174529586,92.6726196359526,179.85800319943144,64.0971297114007,0.0,0,-0.0,,,,,,
21.996653638367423,0.6276618616754688,93.6726196359526,179.85800319943144,66.19904986173961,0.0,0,-0.0,,,,,,
22.996653638367423,0.6425317479541199,94.6726196359526,179.85800319943144,68.30097001207852,0.0,0,-0.0,,,,,,
23.996653638367423,0.6569509573220778,95.6726196359526,179.85800319943144,70.40289016241744,0.0,0,-0.0,,,,,,
24.996653638367423,0.6709460044283563,96.6726196359526,179.85800319943144,72.50481031275635,0.0,0,-0.0,,,,,,
25.996653638367423,0.6845411308844602,97.6726196359526,179.85800319943144,74.60673046309526,0.0,0,-0.0,,,,,,
26.996653638367423,0.69775855786228,98.6726196359526,179.85800319943144,76.70865061343417,0.0,0,-0.0,,,,,,
27.996653638367423,0.7106187045521163,99.6726196359526,179.85800319943144,78.81057076377309,0.0,0,-0.0,,,,,,
28.996653638367423,0.7231403778721119,100.6726196359526,179.85800319943144,80.912490914112,0.0,0,-0.0,,,,,,
29.996653638367423,0.7353409378525693,101.6726196359526,179.85800319943144,83.01441106445091,0.0,0,-0.0,,,,,,
30.996653638367423,0.7472364423444147,102.6726196359526,179.85800319943144,85.11633121478982,0.0,0,-0.0,,,,,,
31.996653638367423,0.7588417740779483,103.6726196359526,179.85800319943144,87.21825136512874,0.0,0,-0.0,,,,,,
32.99665363836742,0.7701707525935925,104.6726196359526,179.85800319943144,89.32017151546765,0.0,0,-0.0,,,,,,
33.99665363836742,0.7812362331557902,105.6726196359526,179.85800319943144,91.42209166580656,0.0,0,-0.0,,,,,,
34.99665363836742,0.7920501944252968,106.6726196359526,179.85800319943144,93.52401181614547,0.0,0,-0.0,,,,,,
35.99665363836742,0.80262381638893,107.6726196359526,179.85800319943144,95.62593196648439,0.0,0,-0.0,,,,,,
36.99665363836742,0.8130608171616114,108.6726196359526,179.85800319943144,96.0,0.0,0,-0.0,,,,,,
37.99665363836742,0.823477483828278,109.6726196359526,179.85800319943144,96.0,0.0,0,-0.0,,,,,,
38.99665363836742,0.8338941504949446,110.6726196359526,179.85800319943144,96.0,0.0,0,-0.0,,,,,,
39.99665363836742,0.8443108171616113,111.6726196359526,179.85800319943144,96.0,0.0,0,0.0,,,,,,
40.99665363836742,0.8547274838282779,112.6726196359526,179.85800319943144,96.0,0.0,0,0.0,,,,,,
41.99665363836742,0.8651441504949445,113.6726196359526,179.85800319943144,96.0,0.0,0,0.0,,,,,,
42.99665363836742,0.8755608171616112,114.6726196359526,179.85800319943144,96.0,0.0,0,0.0,,,,,,
43.99665363836742,0.8859774838282778,115.6726196359526,179.85800319943144,96.0,0.0,0,0.0,,,,,,
44.99665363836742,0.8963941504949444,116.6726196359526,179.85800319943144,96.0,0.0,0,0.0,,,,,,
45.99665363836742,0.906810817161611,117.6726196359526,179.85800319943144,96.0,0.0,0,0.0,,,,,,
46.99665363836742,0.9172274838282777,118.6726196359526,179.85800319943144,96.0,0.0,0,0.0,,,,,,
47.99665363836742,0.9276441504949443,119.6726196359526,179.85800319943144,96.0,0.0,0,0.0,,,,,,
48.99665363836742,0.9380608171616109,120.6726196359526,179.85800319943144,96.0,0.0,0,0.0,,,,,,
49.99665363836742,0.9484774838282776,121.6726196359526,179.85800319943144,96.0,0.0,0,0.0,,,,,,
50.99665363836742,0.9588941504949442,122.6726196359526,179.85800319943144,96.0,0.0,0,0.0,,,,,,
51.99665363836742,0.9693108171616108,123.6726196359526,179.85800319943144,96.0,0.0,0,0.0,,,,,,
52.99665363836742,0.9797274838282775,124.6726196359526,179.85800319943144,96.0,0.0,0,0.0,,,,,,
53.99665363836742,0.9901441504949441,125.6726196359526,179.85800319943144,96.0,0.0,0,0.0,,,,,,
54.99665363836742,1.0005608171616107,126.6726196359526,179.85800319943144,96.0,0.0,0,0.0,,,,,,
55.99665363836742,1.0109774838282775,127.6726196359526,179.85800319943144,96.0,0.0,0,0.0,,,,,,
56.99665363836742,1.0213941504949442,128.6726196359526,179.85800319943144,96.0,0.0,0,0.0,,,,,,
57.99665363836742,1.031810817161611,129.6726196359526,179.85800319943144,96.0,0.0,0,0.0,,,,,,
58.99665363836742,1.0422274838282777,130.6726196359526,179.85800319943144,96.0,0.0,0,0.0,,,,,,
59.99665363836742,1.0526441504949444,131.6726196359526,179.85800319943144,96.0,0.0,0,0.0,,,,,,
60.99665363836742,1.0630608171616112,132.6726196359526,179.85800319943144,96.0,0.0,0,0.0,,,,,,
61.99665363836742,1.073477483828278,133.6726196359526,179.85800319943144,96.0,0.0,0,0.0,,,,,,
62.99665363836742,1.0838941504949446,134.6726196359526,179.85800319943144,96.0,0.0,0,0.0,,,,,,
63.99665363836742,1.0943108171616114,135.6726196359526,179.85800319943144,96.0,0.0,0,0.0,,,,,,
64.99665363836742,1.1047274838282781,136.6726196359526,179.85800319943144,96.0,0.0,0,0.0,,,,,,
65.99665363836742,1.1151441504949449,137.6726196359526,179.85800319943144,96.0,0.0,0,0.0,,,,,,
66.99665363836742,1.1255608171616116,138.6726196359526,179.85800319943144,96.0,0.0,0,0.0,,,,,,
67.99665363836742,1.1359774838282783,139.6726196359526,179.85800319943144,96.0,0.0,0,0.0,,,,,,
68.35350233758814,1.139694657778494,140.0,180.0,96.0,0.0,0,0.0,,,,,,
69.35350233758814,1.1501113244451608,141.0,180.0,96.0,0.0,0,0.0,,,,,,
70.35350233758814,1.1605279911118276,142.0,180.0,96.0,0.0,0,0.0,,,,,,
71.35350233758814,1.1709446577784943,143.0,180.0,96.0,0.0,0,0.0,,,,,,
72.35350233758814,1.181361324445161,144.0,180.0,96.0,0.0,0,0.0,,,,,,
73.35350233758814,1.1917779911118278,145.0,180.0,96.0,0.0,0,0.0,,,,,,
74.35350233758814,1.2021946577784945,146.0,180.0,96.0,0.0,0,0.0,,,,,,
75.35350233758814,1.2126113244451613,147.0,180.0,96.0,0.0,0,0.0,,,,,,
76.35350233758814,1.223027991111828,148.0,180.0,96.0,0.0,0,0.0,,,,,,
77.35350233758814,1.2334446577784948,149.0,180.0,96.0,0.0,0,0.0,,,,,,
78.35350233758814,1.2438613244451615,150.0,180.0,96.0,0.0,0,0.0,,,,,,
79.35350233758814,1.2542779911118282,151.0,180.0,96.0,0.0,0,0.0,,,,,,
80.35350233758814,1.264694657778495,152.0,180.0,96.0,0.0,0,0.0,,,,,,
81.35350233758814,1.2751113244451617,153.0,180.0,96.0,0.0,0,0.0,,,,,,
82.35350233758814,1.2855279911118285,154.0,180.0,96.0,0.0,0,0.0,,,,,,
83.35350233758814,1.2959446577784952,155.0,180.0,96.0,0.0,0,0.0,,,,,,
84.35350233758814,1.306361324445162,156.0,180.0,96.0,0.0,0,0.0,,,,,,
85.35350233758814,1.3167779911118287,157.0,180.0,96.0,0.0,0,0.0,,,,,,
86.35350233758814,1.3271946577784954,158.0,180.0,96.0,0.0,0,0.0,,,,,,
87.35350233758814,1.3376113244451622,159.0,180.0,96.0,0.0,0,0.0,,,,,,
88.35350233758814,1.348027991111829,160.0,180.0,96.0,0.0,0,0.0,,,,,,
89.35350233758814,1.3584446577784957,161.0,180.0,96.0,0.0,0,0.0,,,,,,
90.35350233758814,1.3688613244451624,162.0,180.0,96.0,0.0,0,0.0,,,,,,
91.35350233758814,1.3792779911118291,163.0,180.0,96.0,0.0,0,0.0,,,,,,
92.35350233758814,1.3896946577784959,164.0,180.0,96.0,0.0,0,-0.0,,,,,,
93.35350233758814,1.4001113244451626,165.0,180.0,96.0,0.0,0,-0.0,,,,,,
94.35350233758814,1.4105279911118294,166.0,180.0,96.0,0.0,0,-0.0,,,,,,
95.35350233758814,1.420944657778496,167.0,180.0,96.0,0.0,0,-0.0,,,,,,
96.35350233758814,1.4313613244451628,168.0,180.0,96.0,0.0,0,-0.0,,,,,,
97.35350233758814,1.4417779911118296,169.0,180.0,96.0,0.0,0,-0.0,,,,,,
98.35350233758814,1.4521946577784963,170.0,180.0,96.0,0.0,0,-0.0,,,,,,
99.35350233758814,1.462611324445163,171.0,180.0,96.0,0.0,0,-0.0,,,,,,
100.35350233758814,1.4730279911118298,172.0,180.0,96.0,0.0,0,-0.0,,,,,,
101.35350233758814,1.4834446577784965,173.0,180.0,96.0,0.0,0,-0.0,,,,,,
102.35350233758814,1.4938613244451633,174.0,180.0,96.0,0.0,0,-0.0,,,,,,
103.35350233758814,1.50427799111183,175.0,180.0,96.0,0.0,0,-0.0,,,,,,
104.35350233758814,1.5146946577784968,176.0,180.0,96.0,0.0,0,-0.0,,,,,,
105.35350233758814,1.5251113244451635,177.0,180.0,96.0,0.0,0,-0.0,,,,,,
106.35350233758814,1.5355279911118302,178.0,180.0,96.0,0.0,0,-0.0,,,,,,
107.35350233758814,1.545944657778497,179.0,180.0,96.0,0.0,0,-0.0,,,,,,
108.35350233758814,1.5563613244451637,180.0,180.0,96.0,0.0,0,-0.0,,,,,,
109.35350233758814,1.5667779911118305,181.0,180.0,96.0,0.0,0,-0.0,,,,,,
110.35350233758814,1.5771946577784972,182.0,180.0,96.0,0.0,0,-0.0,,,,,,
111.35350233758814,1.587611324445164,183.0,180.0,96.0,0.0,0,-0.0,,,,,,
112.35350233758814,1.5980279911118307,184.0,180.0,96.0,0.0,0,-0.0,,,,,,
113.35350233758814,1.6084446577784974,185.0,180.0,96.0,0.0,0,0.0,,,,,,
114.35350233758814,1.6188613244451642,186.0,180.0,96.0,0.0,0,0.0,,,,,,
115.35350233758814,1.629277991111831,187.0,180.0,96.0,0.0,0,0.0,,,,,,
116.35350233758814,1.6396946577784977,188.0,180.0,96.0,0.0,0,0.0,,,,,,
117.35350233758814,1.6501113244451644,189.0,180.0,96.0,0.0,0,0.0,,,,,,
118.35350233758814,1.6605279911118311,190.0,180.0,96.0,0.0,0,0.0,,,,,,
119.35350233758814,1.6709446577784979,191.0,180.0,96.0,0.0,0,0.0,,,,,,
120.35350233758814,1.6813613244451646,192.0,180.0,96.0,0.0,0,0.0,,,,,,
121.35350233758814,1.6917779911118314,193.0,180.0,96.0,0.0,0,0.0,,,,,,
122.35350233758814,1.702194657778498,194.0,180.0,96.0,0.0,0,0.0,,,,,,
123.35350233758814,1.7126113244451648,195.0,180.0,96.0,0.0,0,0.0,,,,,,
124.35350233758814,1.7230279911118316,196.0,180.0,96.0,0.0,0,0.0,,,,,,
125.35350233758814,1.7334446577784983,197.0,180.0,96.0,0.0,0,0.0,,,,,,
126.35350233758814,1.743861324445165,198.0,180.0,96.0,0.0,0,0.0,,,,,,
127.35350233758814,1.7542779911118318,199.0,180.0,96.0,0.0,0,0.0,,,,,,
128.35350233758814,1.7646946577784985,200.0,180.0,96.0,0.0,0,0.0,,,,,,
129.35344600982066,1.7751107376975872,200.99993797478842,179.99662446835907,96.0,0.0,0,0.0,,,,,,
130.35334184640917,1.7855263193287174,201.99889345349536,179.9532697040486,96.0,0.0,0,0.0,,,,,,
131.35323768299767,1.7959419009598476,202.99443366287272,179.86004215694,96.0,0.0,0,0.0,,,,,,
132.35313351958615,1.8063574825909776,203.98407027086438,179.71717484734907,96.0,0.0,0,0.0,,,,,,
133.35302935617466,1.8167730642221078,204.96532970134317,179.5250248691459,96.0,0.0,0,0.0,,,,,,
134.35292519276314,1.8271886458532378,205.93575931676287,179.28407249720627,96.0,0.0,0,0.0,,,,,,
135.35282102935162,1.8376042274843678,206.89293354847496,178.99491998697442,96.0,0.0,0,0.0,,,,,,
136.35271686594012,1.848019809115498,207.83445995938686,178.65829006913825,96.0,0.0,0,0.0,,,,,,
137.3526127025286,1.858435390746628,208.75798522380873,178.27502414317885,96.0,0.0,0,0.0,,,,,,
138.3525085391171,1.8688830835121213,209.6612010095422,177.8460801743101,95.40988523149552,0.0,0,0.0,,,,,,
139.3524043757056,1.8793955962214366,210.5418497475086,177.37253029906444,94.81977046299106,0.0,0,0.0,,,,,,
140.35230021229407,1.8899737382122572,211.39773027449604,176.85555814551003,94.2296556944866,0.0,0,0.0,,,,,,
141.35219604888258,1.9006183340755,212.226703334921,176.2964558747968,93.63954092598212,0.0,0,0.0,,,,,,
142.35209188547105,1.9113302240410326,213.02669692785327,175.69662095142678,93.04942615747765,0.0,0,0.0,,,,,,
143.35198772205953,1.9221102643756622,213.79571148593908,175.05755265032033,92.45931138897319,0.0,0,0.0,,,,,,
144.35188355864804,1.9329593277938644,214.5318248732783,174.3808483094099,91.86919662046871,0.0,0,0.0,,,,,,
145.35177939523655,1.943878303881745,215.233197189763,173.66819933712696,91.27908185196424,0.0,0,0.0,,,,,,
146.35177939523655,1.9548692481017138,215.87338158942748,172.89997805752958,90.68890560868888,0.0,0,0.0,,,,,,
147.35177939523655,1.9659319515896294,216.51356598909197,172.1317567779322,90.09872936541353,0.0,0,0.0,,,,,,
148.35177939523655,1.9770673575280753,217.15375038875646,171.3635354983348,89.50855312213818,0.0,0,0.0,,,,,,
149.35177939523655,1.9882764278180185,217.79393478842096,170.59531421873743,88.91837687886283,0.0,0,0.0,,,,,,
150.35177939523655,1.9995601435774213,218.43411918808545,169.82709293914004,88.32820063558748,0.0,0,0.0,,,,,,
151.35177939523655,2.0109195056565654,219.07430358774994,169.05887165954266,87.73802439231213,0.0,0,0.0,,,,,,
152.35177939523655,2.0223555351707683,219.71448798741443,168.29065037994528,87.14784814903678,0.0,0,0.0,,,,,,
153.35177939523655,2.033869274051197,220.35467238707892,167.5224291003479,86.55767190576142,0.0,0,0.0,,,,,,
154.35177939523655,2.045461785614525,220.9948567867434,166.7542078207505,85.96749566248607,0.0,0,0.0,,,,,,
155.35177939523655,2.0571341551522107,221.6350411864079,165.98598654115312,85.37731941921072,0.0,0,0.0,,,,,,
156.35177939523655,2.0688874905402135,222.2752255860724,165.21776526155574,84.78714317593537,0.0,0,0.0,,,,,,
157.35177939523655,2.0807229228700033,222.9154099857369,164.44954398195836,84.19696693266002,0.0,0,0.0,,,,,,
158.35177939523655,2.0926416071017635,223.55559438540138,163.68132270236097,83.60679068938467,0.0,0,0.0,,,,,,
159.35177939523655,2.1046447227407317,224.19577878506587,162.9131014227636,83.01661444610932,0.0,0,0.0,,,,,,
160.35177939523655,2.1167334745376647,224.83596318473036,162.1448801431662,82.42643820283396,0.0,0,0.0,,,,,,
161.35177939523655,2.128909093214472,225.47614758439485,161.37665886356882,81.83626195955861,0.0,0,0.0,,,,,,
162.35177939523655,2.141172836216108,226.11633198405934,160.60843758397144,81.24608571628326,0.0,0,-0.0,,,,,,
163.35177939523655,2.153525988489875,226.75651638372383,159.84021630437405,80.65590947300791,0.0,0,-0.0,,,,,,
164.35177939523655,2.165969863293339,227.39670078338833,159.07199502477667,80.06573322973256,0.0,0,-0.0,,,,,,
165.35177939523655,2.1785058030321354,228.03688518305282,158.30377374517929,79.4755569864572,0.0,0,-0.0,,,,,,
166.35177939523655,2.1911351801289953,228.6770695827173,157.5355524655819,78.88538074318186,0.0,0,-0.0,,,,,,
167.35177939523655,2.2038593979254038,229.3172539823818,156.76733118598452,78.2952044999065,0.0,0,-0.0,,,,,,
168.35177939523655,2.216679891617367,229.9574383820463,155.99910990638713,77.70502825663115,0.0,0,-0.0,,,,,,
169.35177939523655,2.229598129226854,230.59762278171078,155.23088862678975,77.1148520133558,0.0,0,-0.0,,,,,,
170.35177939523655,2.2426156126105514,231.23780718137527,154.46266734719237,76.52467577008045,0.0,0,-0.0,,,,,,
171.35177939523655,2.2557338785076704,231.87799158103977,153.69444606759498,75.9344995268051,0.0,0,-0.0,,,,,,
172.35177939523655,2.2689544996286286,232.51817598070426,152.9262247879976,75.34432328352975,0.0,0,-0.0,,,,,,
173.35177939523655,2.28227908578654,233.15836038036875,152.1580035084002,74.7541470402544,0.0,0,-0.0,,,,,,
174.35177939523655,2.295709285073547,233.79854478003324,151.38978222880283,74.16397079697904,0.0,0,-0.0,,,,,,
175.35177939523655,2.309246785084141,234.43872917969773,150.62156094920545,73.57379455370369,0.0,0,-0.0,,,,,,
176.35177939523655,2.32289331418775,235.07891357936222,149.85333966960806,72.98361831042834,0.0,0,-0.0,,,,,,
177.35177939523655,2.3366506428529843,235.7190979790267,149.08511839001068,72.39344206715299,0.0,0,-0.0,,,,,,
178.35177939523655,2.3505205850260844,236.3592823786912,148.3168971104133,71.80326582387764,0.0,0,-0.0,,,,,,
179.35177939523655,2.364504999566251,236.9994667783557,147.5486758308159,71.21308958060229,0.0,0,-0.0,,,,,,
180.35177939523655,2.378605791740698,237.6396511780202,146.78045455121853,70.62291333732693,0.0,0,0.0,,,,,,
181.35177939523655,2.39282491478244,238.27983557768468,146.01223327162114,70.03273709405158,0.0,0,0.0,,,,,,
182.35177939523655,2.407164371513991,238.92001997734917,145.24401199202376,69.44256085077623,0.0,0,0.0,,,,,,
183.35177939523655,2.421626216040358,239.56020437701366,144.47579071242637,68.85238460750088,0.0,0,0.0,,,,,,
184.35177939523655,2.4362125555149055,240.20038877667815,143.707569432829,68.26220836422553,0.0,0,0.0,,,,,,
185.35177939523655,2.4509255519818853,240.84057317634264,142.9393481532316,67.67203212095018,0.0,0,0.0,,,,,,
186.35177939523655,2.4657674242996652,241.48075757600714,142.17112687363422,67.08185587767483,0.0,0,0.0,,,,,,
187.35177939523655,2.48074045014893,242.12094197567163,141.40290559403684,66.49167963439947,0.0,0,0.0,,,,,,
188.35177939523655,2.4958469681304067,242.76112637533612,140.63468431443945,65.90150339112412,0.0,0,0.0,,,,,,
189.35177939523655,2.511089379956939,243.4013107750006,139.86646303484207,65.31132714784877,0.0,0,0.0,,,,,,
190.35217378003242,2.5264762462302928,244.067135395481,139.11982624235642,64.72091814803619,0.0,0,0.0,,,,,,
191.35206961662092,2.5419963467727538,244.72999725021762,138.37122364714176,64.13080337953171,0.0,0,0.0,,,,,,
192.3519654532094,2.557659919289983,245.42944523606442,137.65668589507976,63.54068861102726,0.0,0,0.0,,,,,,
193.3518612897979,2.573469641118883,246.16373109732226,136.97799895842644,62.950573842522786,0.0,0,0.0,,,,,,
194.35175712638642,2.5894282652450515,246.93101950174665,136.33685920107015,62.360459074018316,0.0,0,0.0,,,,,,
195.35165296297492,2.6055386231798394,247.72939262792264,135.73486913850516,61.770344305513845,0.0,0,0.0,,,,,,
196.3515487995634,2.621803627975493,248.55685495881943,135.1735334323775,61.18022953700939,0.0,0,0.0,,,,,,
197.35144463615188,2.638226277386417,249.41133826954385,134.6542551296145,60.59011476850493,0.0,0,0.0,,,,,,
198.35134047274036,2.6548096571851336,250.2907067968254,134.1783321555382,60.000000000000476,0.0,0,0.0,,,,,,
199.35123630932887,2.671691893959089,251.19276257731218,133.74695406972782,58.45537412803935,0.0,0,0.0,,,,,,
200.35113214591735,2.6890262000088194,252.1152509413345,133.36119909274058,56.91074825607827,0.0,0,0.0,,,,,,
201.35102798250585,2.7068374523333127,253.05586614840496,133.0220314111216,55.36612238411715,0.0,0,0.0,,,,,,
202.35092381909436,2.7251526394707555,254.01225715036884,132.73029876743985,53.821496512156024,0.0,0,0.0,,,,,,
203.35081965568284,2.744001107424135,254.9820334678,132.4867303413731,52.27687064019494,0.0,0,0.0,,,,,,
204.35071549227132,2.763414842463484,255.96277116495463,132.29193492713853,50.73224476823386,0.0,0,0.0,,,,,,
205.35061132885983,2.783428797645524,256.9520189083482,132.14639941182423,49.18761889627274,0.0,0,0.0,,,,,,
