Distance (in),Time (s),X (in),Y (in),Velocity (in/s),Orientation (deg),Touch,Rotational Velocity (deg/s),Way X (in),Way Y (in),Way Velocity (in/s),Way Orientation (deg),Way Turn Radius (in),Touch this Point
0.0,0.0,74.0,141.60000000000002,12.0,0.0,0,0.0,74.0,141.60000000000002,12.0,0.0,3.0,0
1.0000000000000016,0.07291393611010336,74.55470019622523,140.76794970566218,15.429598602109646,0.0,0,0.0,78.0,135.60000000000002,36.0,0.0,10.0,0
1.9999865550589015,0.1312413212691994,75.11021653418697,139.93646025380116,18.859151093468085,0.0,0,-0.0,140.0,135.60000000000002,96.0,0.0,3.0,0
2.9995699404724605,0.17982791144806345,75.71680083397551,139.1419651741154,22.287320874774448,0.0,0,-0.0,210.0,135.6,96.0,25.0,20.0,0
3.999153325886014,0.2214747797683093,76.3996718971715,138.4119966436674,25.715490656080792,0.0,0,0.0,252.0,162.6,60.0,45.0,20.0,0
4.998736711299587,0.25791658994909394,77.15200670183863,137.75384826671785,29.143660437387204,0.0,0,0.0,282.0,183.6,12.0,45.0,3.0,0
5.99832009671315,0.2903098634947552,77.96628816729748,137.17409604429432,32.57183021869358,0.0,0,0.0,,,,,,
6.997903482126725,0.32003959126864295,78.83438026231087,136.67853266896265,34.67287467843836,0.0,0,0.0,,,,,,
7.997486867540294,0.348020787681155,79.74760929761852,136.2721096461577,36.77391913818313,0.0,0,0.0,,,,,,
8.997070252953861,0.37444770501978786,80.69685059057302,135.95888782037775,38.874963597927895,0.0,0,0.0,,,,,,
9.996653638367423,0.39948392849180253,81.6726196359526,135.7419968005686,40.97600805767265,0.0,0,0.0,,,,,,
10.996653638367423,0.4232781740542976,82.6726196359526,135.7419968005686,43.07792820801156,0.0,0,0.0,,,,,,
11.996653638367423,0.4459390667009209,83.6726196359526,135.7419968005686,45.179848358350476,0.0,0,0.0,,,,,,
12.996653638367423,0.46756966399921396,84.6726196359526,135.7419968005686,47.28176850868939,0.0,0,0.0,,,,,,
13.996653638367423,0.4882595780450342,85.6726196359526,135.7419968005686,49.3836886590283,0.0,0,0.0,,,,,,
14.996653638367423,0.5080872168825769,86.6726196359526,135.7419968005686,51.485608809367214,0.0,0,0.0,,,,,,
15.996653638367423,0.5271215775428204,87.6726196359526,135.7419968005686,53.58752895970613,0.0,0,0.0,,,,,,
16.996653638367423,0.5454236941947231,88.6726196359526,135.7419968005686,55.68944911004504,0.0,0,0.0,,,,,,
17.996653638367423,0.5630478180662264,89.6726196359526,135.7419968005686,57.79136926038395,0.0,0,0.0,,,,,,
18.996653638367423,0.5800423866241333,90.6726196359526,135.7419968005686,59.893289410722865,0.0,0,0.0,,,,,,
19.996653638367423,0.5964508256226558,91.6726196359526,135.7419968005686,61.99520956106178,0.0,0,-0.0,,,,,,
20.996653638367423,0.6123122174529586,92.6726196359526,135.7419968005686,64.0971297114007,0.0,0,-0.0,,,,,,
21.996653638367423,0.6276618616754688,93.6726196359526,135.7419968005686,66.19904986173961,0.0,0,-0.0,,,,,,
22.996653638367423,0.6425317479541199,94.6726196359526,135.7419968005686,68.30097001207852,0.0,0,-0.0,,,,,,
23.996653638367423,0.6569509573220778,95.6726196359526,135.7419968005686,70.40289016241744,0.0,0,-0.0,,,,,,
24.996653638367423,0.6709460044283563,96.6726196359526,135.7419968005686,72.50481031275635,0.0,0,-0.0,,,,,,
25.996653638367423,0.6845411308844602,97.6726196359526,135.7419968005686,74.60673046309526,0.0,0,-0.0,,,,,,
26.996653638367423,0.69775855786228,98.6726196359526,135.7419968005686,76.70865061343417,0.0,0,-0.0,,,,,,
27.996653638367423,0.7106187045521163,99.6726196359526,135.7419968005686,78.81057076377309,0.0,0,-0.0,,,,,,
28.996653638367423,0.7231403778721119,100.6726196359526,135.7419968005686,80.912490914112,0.0,0,-0.0,,,,,,
29.996653638367423,0.7353409378525693,101.6726196359526,135.7419968005686,83.01441106445091,0.0,0,-0.0,,,,,,
30.996653638367423,0.7472364423444147,102.6726196359526,135.7419968005686,85.11633121478982,0.0,0,-0.0,,,,,,
31.996653638367423,0.7588417740779483,103.6726196359526,135.7419968005686,87.21825136512874,0.0,0,-0.0,,,,,,
32.99665363836742,0.7701707525935925,104.6726196359526,135.7419968005686,89.32017151546765,0.0,0,-0.0,,,,,,
33.99665363836742,0.7812362331557902,105.6726196359526,135.7419968005686,91.42209166580656,0.0,0,-0.0,,,,,,
34.99665363836742,0.7920501944252968,106.6726196359526,135.7419968005686,93.52401181614547,0.0,0,-0.0,,,,,,
35.99665363836742,0.80262381638893,107.6726196359526,135.7419968005686,95.62593196648439,0.0,0,-0.0,,,,,,
36.99665363836742,0.8130608171616114,108.6726196359526,135.7419968005686,96.0,0.0,0,-0.0,,,,,,
37.99665363836742,0.823477483828278,109.6726196359526,135.7419968005686,96.0,0.0,0,-0.0,,,,,,
38.99665363836742,0.8338941504949446,110.6726196359526,135.7419968005686,96.0,0.0,0,-0.0,,,,,,
39.99665363836742,0.8443108171616113,111.6726196359526,135.7419968005686,96.0,0.0,0,0.0,,,,,,
40.99665363836742,0.8547274838282779,112.6726196359526,135.7419968005686,96.0,0.0,0,0.0,,,,,,
41.99665363836742,0.8651441504949445,113.6726196359526,135.7419968005686,96.0,0.0,0,0.0,,,,,,
42.99665363836742,0.8755608171616112,114.6726196359526,135.7419968005686,96.0,0.0,0,0.0,,,,,,
43.99665363836742,0.8859774838282778,115.6726196359526,135.7419968005686,96.0,0.0,0,0.0,,,,,,
44.99665363836742,0.8963941504949444,116.6726196359526,135.7419968005686,96.0,0.0,0,0.0,,,,,,
45.99665363836742,0.906810817161611,117.6726196359526,135.7419968005686,96.0,0.0,0,0.0,,,,,,
46.99665363836742,0.9172274838282777,118.6726196359526,135.7419968005686,96.0,0.0,0,0.0,,,,,,
47.99665363836742,0.9276441504949443,119.6726196359526,135.7419968005686,96.0,0.0,0,0.0,,,,,,
48.99665363836742,0.9380608171616109,120.6726196359526,135.7419968005686,96.0,0.0,0,0.0,,,,,,
49.99665363836742,0.9484774838282776,121.6726196359526,135.7419968005686,96.0,0.0,0,0.0,,,,,,
50.99665363836742,0.9588941504949442,122.6726196359526,135.7419968005686,96.0,0.0,0,0.0,,,,,,
51.99665363836742,0.9693108171616108,123.6726196359526,135.7419968005686,96.0,0.0,0,0.0,,,,,,
52.99665363836742,0.9797274838282775,124.6726196359526,135.7419968005686,96.0,0.0,0,0.0,,,,,,
53.99665363836742,0.9901441504949441,125.6726196359526,135.7419968005686,96.0,0.0,0,0.0,,,,,,
54.99665363836742,1.0005608171616107,126.6726196359526,135.7419968005686,96.0,0.0,0,0.0,,,,,,
55.99665363836742,1.0109774838282775,127.6726196359526,135.7419968005686,96.0,0.0,0,0.0,,,,,,
56.99665363836742,1.0213941504949442,128.6726196359526,135.7419968005686,96.0,0.0,0,0.0,,,,,,
57.99665363836742,1.031810817161611,129.6726196359526,135.7419968005686,96.0,0.0,0,0.0,,,,,,
58.99665363836742,1.0422274838282777,130.6726196359526,135.7419968005686,96.0,0.0,0,0.0,,,,,,
59.99665363836742,1.0526441504949444,131.6726196359526,135.7419968005686,96.0,0.0,0,0.0,,,,,,
60.99665363836742,1.0630608171616112,132.6726196359526,135.7419968005686,96.0,0.0,0,0.0,,,,,,
61.99665363836742,1.073477483828278,133.6726196359526,135.7419968005686,96.0,0.0,0,0.0,,,,,,
62.99665363836742,1.0838941504949446,134.6726196359526,135.7419968005686,96.0,0.0,0,0.0,,,,,,
63.99665363836742,1.0943108171616114,135.6726196359526,135.7419968005686,96.0,0.0,0,0.0,,,,,,
64.99665363836742,1.1047274838282781,136.6726196359526,135.7419968005686,96.0,0.0,0,0.0,,,,,,
65.99665363836742,1.1151441504949449,137.6726196359526,135.7419968005686,96.0,0.0,0,0.0,,,,,,
66.99665363836742,1.1255608171616116,138.6726196359526,135.7419968005686,96.0,0.0,0,0.0,,,,,,
67.99665363836742,1.1359774838282783,139.6726196359526,135.7419968005686,96.0,0.0,0,0.0,,,,,,
68.35350233758814,1.139694657778494,140.0,135.60000000000002,96.0,0.02242487387280256,0,2.1527878917890306,,,,,,
69.35350233758814,1.1501113244451608,141.0,135.60000000000002,96.0,0.06727462161840768,0,4.305575783578061,,,,,,
70.35350233758814,1.1605279911118276,142.0,135.60000000000002,96.0,0.13454924323681536,0,6.458363675367091,,,,,,
71.35350233758814,1.1709446577784943,143.0,135.60000000000002,96.0,0.2242487387280256,0,8.611151567156123,,,,,,
72.35350233758814,1.181361324445161,144.0,135.60000000000002,96.0,0.3363731080920384,0,10.763939458945153,,,,,,
73.35350233758814,1.1917779911118278,145.0,135.60000000000002,96.0,0.47092235132885374,0,12.916727350734183,,,,,,
74.35350233758814,1.2021946577784945,146.0,135.60000000000002,96.0,0.6278964684384717,0,15.069515242523213,,,,,,
75.35350233758814,1.2126113244451613,147.0,135.60000000000002,96.0,0.8072954594208922,0,17.222303134312245,,,,,,
76.35350233758814,1.223027991111828,148.0,135.60000000000002,96.0,1.0091193242761154,0,19.375091026101277,,,,,,
77.35350233758814,1.2334446577784948,149.0,135.60000000000002,96.0,1.233368063004141,0,21.527878917890305,,,,,,
78.35350233758814,1.2438613244451615,150.0,135.60000000000002,96.0,1.4800416756049692,0,23.680666809679337,,,,,,
79.35350233758814,1.2542779911118282,151.0,135.60000000000002,96.0,1.7491401620786,0,25.833454701468366,,,,,,
80.35350233758814,1.264694657778495,152.0,135.60000000000002,96.0,2.0406635224250333,0,27.986242593257394,,,,,,
81.35350233758814,1.2751113244451617,153.0,135.60000000000002,96.0,2.3546117566442692,0,30.139030485046426,,,,,,
82.35350233758814,1.2855279911118285,154.0,135.60000000000002,96.0,2.6909848647363077,0,32.29181837683546,,,,,,
83.35350233758814,1.2959446577784952,155.0,135.60000000000002,96.0,3.0497828467011487,0,34.44460626862449,,,,,,
84.35350233758814,1.306361324445162,156.0,135.60000000000002,96.0,3.4310057025387923,0,36.59739416041352,,,,,,
85.35350233758814,1.3167779911118287,157.0,135.60000000000002,96.0,3.8346534322492385,0,38.750182052202554,,,,,,
86.35350233758814,1.3271946577784954,158.0,135.60000000000002,96.0,4.260726035832487,0,40.90296994399158,,,,,,
87.35350233758814,1.3376113244451622,159.0,135.60000000000002,96.0,4.7092235132885385,0,43.05575783578061,,,,,,
88.35350233758814,1.348027991111829,160.0,135.60000000000002,96.0,5.180145864617392,0,45.20854572756964,,,,,,
89.35350233758814,1.3584446577784957,161.0,135.60000000000002,96.0,5.673493089819049,0,47.361333619358675,,,,,,
90.35350233758814,1.3688613244451624,162.0,135.60000000000002,96.0,6.189265188893508,0,49.5141215111477,,,,,,
91.35350233758814,1.3792779911118291,163.0,135.60000000000002,96.0,6.727462161840769,0,51.66690940293673,,,,,,
92.35350233758814,1.3896946577784959,164.0,135.60000000000002,96.0,7.276892141122826,0,52.745278011077005,,,,,,
93.35350233758814,1.4001113244451626,165.0,135.60000000000002,96.0,7.826322120404882,0,52.745278011077005,,,,,,
94.35350233758814,1.4105279911118294,166.0,135.60000000000002,96.0,8.375752099686938,0,52.745278011077005,,,,,,
95.35350233758814,1.420944657778496,167.0,135.60000000000002,96.0,8.925182078968994,0,52.745278011077005,,,,,,
96.35350233758814,1.4313613244451628,168.0,135.60000000000002,96.0,9.47461205825105,0,52.745278011077005,,,,,,
97.35350233758814,1.4417779911118296,169.0,135.60000000000002,96.0,10.024042037533107,0,52.745278011077005,,,,,,
98.35350233758814,1.4521946577784963,170.0,135.60000000000002,96.0,10.573472016815163,0,52.745278011077005,,,,,,
99.35350233758814,1.462611324445163,171.0,135.60000000000002,96.0,11.12290199609722,0,52.745278011077005,,,,,,
100.35350233758814,1.4730279911118298,172.0,135.60000000000002,96.0,11.672331975379276,0,52.745278011077005,,,,,,
101.35350233758814,1.4834446577784965,173.0,135.60000000000002,96.0,12.221761954661332,0,52.745278011077005,,,,,,
102.35350233758814,1.4938613244451633,174.0,135.60000000000002,96.0,12.771191933943388,0,52.745278011077005,,,,,,
103.35350233758814,1.50427799111183,175.0,135.60000000000002,96.0,13.320621913225445,0,52.745278011077005,,,,,,
104.35350233758814,1.5146946577784968,176.0,135.60000000000002,96.0,13.870051892507501,0,52.745278011077005,,,,,,
105.35350233758814,1.5251113244451635,177.0,135.60000000000002,96.0,14.419481871789557,0,52.745278011077005,,,,,,
106.35350233758814,1.5355279911118302,178.0,135.60000000000002,96.0,14.968911851071613,0,52.745278011077005,,,,,,
107.35350233758814,1.545944657778497,179.0,135.60000000000002,96.0,15.51834183035367,0,52.745278011077005,,,,,,
108.35350233758814,1.5563613244451637,180.0,135.60000000000002,96.0,16.067771809635726,0,52.745278011077005,,,,,,
109.35350233758814,1.5667779911118305,181.0,135.60000000000002,96.0,16.617201788917782,0,52.745278011077005,,,,,,
110.35350233758814,1.5771946577784972,182.0,135.60000000000002,96.0,17.16663176819984,0,52.745278011077005,,,,,,
111.35350233758814,1.587611324445164,183.0,135.60000000000002,96.0,17.716061747481895,0,52.745278011077005,,,,,,
112.35350233758814,1.5980279911118307,184.0,135.60000000000002,96.0,18.26549172676395,0,52.745278011077005,,,,,,
113.35350233758814,1.6084446577784974,185.0,135.60000000000002,96.0,18.80374746942091,0,51.67255129506747,,,,,,
114.35350233758814,1.6188613244451642,186.0,135.60000000000002,96.0,19.319578338205062,0,49.51976340327844,,,,,,
115.35350233758814,1.629277991111831,187.0,135.60000000000002,96.0,19.812984333116415,0,47.366975511489414,,,,,,
116.35350233758814,1.6396946577784977,188.0,135.60000000000002,96.0,20.283965454154963,0,45.21418761970038,,,,,,
117.35350233758814,1.6501113244451644,189.0,135.60000000000002,96.0,20.73252170132071,0,43.06139972791135,,,,,,
118.35350233758814,1.6605279911118311,190.0,135.60000000000002,96.0,21.158653074613653,0,40.908611836122326,,,,,,
119.35350233758814,1.6709446577784979,191.0,135.60000000000002,96.0,21.562359574033795,0,38.755823944333294,,,,,,
120.35350233758814,1.6813613244451646,192.0,135.60000000000002,96.0,21.943641199581133,0,36.60303605254427,,,,,,
121.35350233758814,1.6917779911118314,193.0,135.60000000000002,96.0,22.30249795125567,0,34.45024816075524,,,,,,
122.35350233758814,1.702194657778498,194.0,135.60000000000002,96.0,22.638929829057403,0,32.29746026896621,,,,,,
123.35350233758814,1.7126113244451648,195.0,135.60000000000002,96.0,22.952936832986335,0,30.14467237717718,,,,,,
124.35350233758814,1.7230279911118316,196.0,135.60000000000002,96.0,23.244518963042463,0,27.991884485388155,,,,,,
125.35350233758814,1.7334446577784983,197.0,135.60000000000002,96.0,23.51367621922579,0,25.839096593599123,,,,,,
126.35350233758814,1.743861324445165,198.0,135.60000000000002,96.0,23.760408601536312,0,23.686308701810095,,,,,,
127.35350233758814,1.7542779911118318,199.0,135.60000000000002,96.0,23.984716109974034,0,21.533520810021066,,,,,,
128.35350233758814,1.7646946577784985,200.0,135.60000000000002,96.0,24.18659874453895,0,19.38073291823204,,,,,,
129.35350233758814,1.7751113244451653,201.0,135.60000000000002,96.0,24.366056505231068,0,17.22794502644301,,,,,,
130.35350233758814,1.785527991111832,202.0,135.60000000000002,96.0,24.52308939205038,0,15.075157134653978,,,,,,
131.35350233758814,1.7959446577784988,203.0,135.60000000000002,96.0,24.657609713552013,0,12.922369242864953,,,,,,
132.35350233758814,1.8063613244451655,204.0,135.60000000000002,96.0,24.769795774585347,0,10.770983801618165,,,,,,
133.35285087975174,1.816771205092703,204.9991665510305,135.6190712355744,96.0,24.8595616332053,0,8.618420151560244,,,,,,
134.35274671634022,1.827186786723833,205.9967054939637,135.68768421800993,96.0,24.92690728941187,0,6.465856501502316,,,,,,
135.3526425529287,1.837602368354963,206.98956855310905,135.80606761976685,96.0,24.97183274320506,0,4.313292851444395,,,,,,
136.35253838951718,1.848017949986093,207.97527408789176,135.97392554399363,96.0,25.0,0,2.160729201386424,,,,,,
137.3524342261057,1.8584335316172231,208.95135834782042,136.19083843329844,96.0,25.0,0,0.0,,,,,,
138.35233006269416,1.8688886237949625,209.91538163058001,136.45626411842406,95.27441816676269,25.022991780392523,0,2.165730462139086,,,,,,
139.35222589928267,1.8794236432183808,210.8649343800173,136.7695391733887,94.54883633352534,25.06951083236369,0,4.348145080323289,,,,,,
140.35212173587115,1.8900398213598721,211.79764320877618,137.12988057370544,93.82325450028803,25.140108009781425,0,6.547502909987887,,,,,,
141.35201757245966,1.9007384183734999,212.71117683053015,137.53638765353568,93.09767266705069,25.23536004077299,0,8.764069087319195,,,,,,
142.35191340904817,1.9115207239926457,213.6032518869839,137.98804435688461,92.37209083381335,25.355845517925427,0,10.998348668899345,,,,,,
143.35191340904817,1.922389195023914,214.44443036236046,138.52880194819812,91.64643341362354,25.502164974300758,0,13.250389616963817,,,,,,
144.35191340904817,1.9333440647756925,215.28560883773702,139.06955953951163,90.92077599343374,25.674936664806733,0,15.52047658167908,,,,,,
145.35191340904817,1.9443867179055299,216.12678731311357,139.61031713082514,90.19511857324393,25.87479722089665,0,17.808901111349343,,,,,,
146.35191340904817,1.9555185726264037,216.96796578849012,140.15107472213865,89.46946115305413,26.10240233468884,0,20.115961877122043,,,,,,
147.35191340904817,1.9667410817997826,217.80914426386667,140.69183231345215,88.74380373286432,26.35842747407248,0,22.44196490691798,,,,,,
148.35191340904817,1.9780557340735596,218.65032273924322,141.23258990476566,88.01814631267452,26.643568630463037,0,24.787223829044432,,,,,,
149.35191340904817,1.989464055067089,219.49150121461977,141.77334749607917,87.29248889248471,26.958543100974314,0,27.152060125976444,,,,,,
150.35191340904817,2.0009676086056842,220.33267968999633,142.31410508739268,86.56683147229491,27.30409030688522,0,29.53680339881926,,,,,,
151.35191340904817,2.012567998007074,221.17385816537288,142.85486267870618,85.8411740521051,27.680972650398168,0,31.94179164299677,,,,,,
152.35191340904817,2.0242668674224666,222.01503664074943,143.3956202700197,85.1155166319153,28.089976411813666,0,34.367371535742016,,,,,,
153.35191340904817,2.0360659032350235,222.85621511612598,143.9363778613332,84.3898592117255,28.5319126893827,0,36.81389873600154,,,,,,
154.35191340904817,2.0479668355187197,223.69739359150253,144.4771354526467,83.66420179153569,29.007618384245195,0,39.28173819740266,,,,,,
155.35191340904817,2.0599714395607482,224.53857206687908,145.0178930439602,82.93854437134588,29.517957233020958,0,41.77126449497187,,,,,,
156.35191340904817,2.0720815374508144,225.37975054225564,145.55865063527372,82.21288695115608,30.063820890789174,0,44.28286216633616,,,,,,
157.35191340904817,2.084298999740882,226.2209290176322,146.09940822658723,81.48722953096627,30.646130067374983,0,46.81692606818487,,,,,,
158.35191340904817,2.0966257471791536,227.06210749300874,146.64016581790074,80.76157211077647,31.236691708742136,0,47.05186842942504,,,,,,
159.35191340904817,2.109063752522301,227.9032859683853,147.18092340921424,80.03591469058667,31.832681588177984,0,47.05186842942504,,,,,,
160.35191340904817,2.1216150424302236,228.74446444376184,147.72168100052775,79.31025727039686,32.43420042038576,0,47.05186842942504,,,,,,
161.35191340904817,2.134281699447889,229.5856429191384,148.26243859184126,78.58459985020706,33.041351749283024,0,47.05186842942504,,,,,,
162.35191340904817,2.1470658640790985,230.42682139451495,148.80319618315477,77.85894243001725,33.654242054971995,0,47.05186842942504,,,,,,
163.35191340904817,2.1599697369573447,231.2679998698915,149.34395377446828,77.13328500982745,34.2729808658137,0,47.05186842942504,,,,,,
164.35191340904817,2.172995581119267,232.10917834526805,149.88471136578178,76.40762758963764,34.897680875900996,0,47.05186842942504,,,,,,
165.35191340904817,2.1861457243865803,232.9503568206446,150.4254689570953,75.68197016944784,35.5284580682456,0,47.05186842942504,,,,,,
166.35191340904817,2.1994225618627437,233.79153529602115,150.9662265484088,74.95631274925803,36.16543184401579,0,47.05186842942504,,,,,,
167.35191340904817,2.2128285585510734,234.6327137713977,151.5069841397223,74.23065532906823,36.808725158185204,0,47.05186842942504,,,,,,
168.35191340904817,2.22636625210145,235.47389224677426,152.0477417310358,73.50499790887842,37.458464661977956,0,47.05186842942504,,,,,,
169.35191340904817,2.24003825569328,236.3150707221508,152.58849932234932,72.77934048868862,38.11478085252297,0,47.05186842942504,,,,,,
170.35191340904817,2.2538472610629037,237.15624919752736,153.12925691366283,72.05368306849881,38.77780823015979,0,47.05186842942504,,,,,,
171.35191340904817,2.2677960416842184,237.9974276729039,153.67001450497634,71.32802564830901,39.44768546387018,0,47.05186842942504,,,,,,
